324.497	1281
325.099	1272
325.701	1313
326.303	1269
326.905	1310
327.507	1274
328.109	1310
328.711	1291
329.313	1244
329.915	1250
330.517	1303
331.118	1257
331.72	1219
332.321	1281
332.923	1332
333.524	1270
334.126	1302
334.727	1283
335.328	1250
335.93	1242
336.531	1248
337.132	1256
337.733	1221
338.334	1275
338.935	1244
339.536	1238
340.137	1259
340.738	1255
341.338	1236
341.939	1266
342.54	1307
343.14	1226
343.741	1216
344.341	1244
344.941	1239
345.542	1216
346.142	1186
346.742	1222
347.342	1220
347.943	1212
348.543	1253
349.143	1209
349.742	1242
350.342	1251
350.942	1228
351.542	1215
352.142	1190
352.741	1234
353.341	1221
353.94	1217
354.54	1217
355.139	1249
355.739	1227
356.338	1196
356.937	1203
357.537	1234
358.136	1206
358.735	1158
359.334	1159
359.933	1178
360.532	1217
361.131	1210
361.729	1250
362.328	1194
362.927	1179
363.526	1219
364.124	1161
364.723	1135
365.321	1210
365.92	1202
366.518	1185
367.116	1159
367.715	1146
368.313	1220
368.911	1183
369.509	1171
370.107	1197
370.705	1221
371.303	1160
371.901	1188
372.499	1173
373.096	1152
373.694	1152
374.292	1151
374.889	1170
375.487	1216
376.084	1159
376.682	1172
377.279	1156
377.876	1177
378.474	1130
379.071	1187
379.668	1162
380.265	1169
380.862	1167
381.459	1175
382.056	1164
382.653	1157
383.249	1083
383.846	1163
384.443	1113
385.04	1172
385.636	1163
386.233	1148
386.829	1133
387.425	1115
388.022	1170
388.618	1174
389.214	1142
389.811	1153
390.407	1173
391.003	1160
391.599	1186
392.195	1162
392.791	1140
393.386	1161
393.982	1140
394.578	1076
395.174	1137
395.769	1157
396.365	1183
396.96	1120
397.556	1116
398.151	1109
398.747	1060
399.342	1122
399.937	1101
400.532	1165
401.127	1153
401.723	1126
402.318	1114
402.912	1109
403.507	1159
404.102	1142
404.697	1121
405.292	1175
405.886	1098
406.481	1102
407.076	1142
407.67	1134
408.265	1107
408.859	1087
409.453	1127
410.048	1113
410.642	1097
411.236	1079
411.83	1109
412.424	1116
413.018	1116
413.612	1112
414.206	1118
414.8	1113
415.394	1130
415.987	1092
416.581	1134
417.175	1147
417.768	1159
418.362	1124
418.955	1118
419.549	1102
420.142	1120
420.735	1116
421.328	1076
421.922	1110
422.515	1062
423.108	1058
423.701	1124
424.294	1080
424.887	1069
425.479	1089
426.072	1080
426.665	1034
427.258	1068
427.85	1075
428.443	1054
429.035	1127
429.628	1118
430.22	1046
430.813	1117
431.405	1065
431.997	1030
432.589	1062
433.181	1106
433.773	1072
434.365	1060
434.957	1055
435.549	1044
436.141	1087
436.733	1057
437.325	1074
437.916	1055
438.508	1043
439.099	1108
439.691	1080
440.282	1070
440.874	1060
441.465	1077
442.056	1083
442.648	1025
443.239	1084
443.83	1041
444.421	1094
445.012	1074
445.603	1068
446.194	1096
446.785	1057
447.375	1068
447.966	1086
448.557	1040
449.147	1071
449.738	1057
450.328	1095
450.919	1053
451.509	1067
452.1	1075
452.69	1049
453.28	1076
453.87	1077
454.46	1063
455.051	1099
455.641	1068
456.23	1053
456.82	1062
457.41	1014
458	1048
458.59	1061
459.179	1082
459.769	1036
460.359	1029
460.948	1053
461.538	1060
462.127	1026
462.716	1074
463.306	1061
463.895	1042
464.484	1051
465.073	1060
465.662	1081
466.251	1023
466.84	1053
467.429	1077
468.018	1047
468.607	1036
469.195	1004
469.784	1018
470.373	1039
470.961	1044
471.55	1033
472.138	1051
472.727	1078
473.315	1055
473.903	1018
474.491	1030
475.08	1072
475.668	1030
476.256	1038
476.844	1044
477.432	1019
478.02	1040
478.608	1064
479.195	1056
479.783	1046
480.371	1059
480.958	1132
481.546	1089
482.133	1062
482.721	1056
483.308	1126
483.896	1044
484.483	1087
485.07	1066
485.657	1115
486.245	1101
486.832	1064
487.419	1097
488.006	1074
488.592	1065
489.179	1074
489.766	1064
490.353	1002
490.94	1009
491.526	1006
492.113	989
492.699	1010
493.286	1003
493.872	1030
494.459	997
495.045	1011
495.631	1005
496.217	1053
496.803	1058
497.389	1002
497.976	1077
498.561	1049
499.147	1024
499.733	1024
500.319	983
500.905	1033
501.49	1025
502.076	982
502.662	986
503.247	999
503.833	970
504.418	991
505.004	1009
505.589	981
506.174	1016
506.759	980
507.344	994
507.929	996
508.515	1010
509.1	1006
509.684	983
510.269	988
510.854	993
511.439	999
512.024	996
512.608	1016
513.193	1012
513.777	980
514.362	1012
514.946	1008
515.531	1028
516.115	1042
516.699	1042
517.283	1070
517.868	1004
518.452	1017
519.036	1041
519.62	1034
520.204	1040
520.788	1027
521.371	1033
521.955	1038
522.539	1033
523.122	1114
523.706	1156
524.29	1190
524.873	1237
525.457	1287
526.04	1276
526.623	1251
527.207	1358
527.79	1283
528.373	1304
528.956	1320
529.539	1385
530.122	1361
530.705	1290
531.288	1273
531.871	1275
532.454	1271
533.036	1307
533.619	1163
534.202	1174
534.784	1132
535.367	1058
535.949	1032
536.531	1017
537.114	1021
537.696	1002
538.278	1021
538.861	1014
539.443	942
540.025	967
540.607	1018
541.189	996
541.771	952
542.352	994
542.934	990
543.516	973
544.098	972
544.679	955
545.261	967
545.842	941
546.424	962
547.005	983
547.587	989
548.168	946
548.749	986
549.33	966
549.911	969
550.493	1000
551.074	962
551.655	978
552.235	970
552.816	952
553.397	965
553.978	988
554.559	955
555.139	963
555.72	959
556.3	986
556.881	990
557.461	956
558.042	974
558.622	938
559.202	944
559.782	984
560.362	944
560.943	960
561.523	980
562.103	984
562.683	945
563.262	932
563.842	975
564.422	950
565.002	951
565.581	965
566.161	950
566.741	981
567.32	952
567.899	937
568.479	954
569.058	937
569.637	972
570.217	964
570.796	903
571.375	951
571.954	963
572.533	923
573.112	927
573.691	954
574.27	922
574.848	965
575.427	972
576.006	928
576.584	936
577.163	959
577.742	944
578.32	934
578.898	926
579.477	948
580.055	956
580.633	894
581.211	963
581.79	930
582.368	948
582.946	925
583.524	948
584.102	920
584.679	914
585.257	932
585.835	931
586.413	945
586.99	948
587.568	915
588.145	924
588.723	928
589.3	900
589.878	957
590.455	973
591.032	900
591.609	939
592.187	953
592.764	945
593.341	898
593.918	922
594.495	951
595.072	929
595.648	918
596.225	940
596.802	896
597.378	943
597.955	934
598.532	930
599.108	920
599.685	930
600.261	935
600.837	949
601.414	949
601.99	940
602.566	915
603.142	901
603.718	938
604.294	923
604.87	956
605.446	952
606.022	905
606.598	928
607.173	914
607.749	914
608.325	921
608.9	927
609.476	945
610.051	925
610.627	935
611.202	935
611.777	935
612.352	922
612.928	990
613.503	951
614.078	934
614.653	938
615.228	912
615.803	914
616.378	980
616.952	906
617.527	931
618.102	944
618.677	954
619.251	910
619.826	942
620.4	916
620.975	984
621.549	912
622.123	946
622.698	920
623.272	916
623.846	961
624.42	921
624.994	904
625.568	914
626.142	908
626.716	945
627.29	912
627.864	944
628.437	933
629.011	917
629.585	955
630.158	904
630.732	950
631.305	927
631.878	922
632.452	910
633.025	920
633.598	919
634.172	954
634.745	926
635.318	900
635.891	873
636.464	925
637.037	916
637.609	938
638.182	894
638.755	919
639.328	938
639.9	915
640.473	964
641.045	932
641.618	888
642.19	928
642.763	944
643.335	935
643.907	884
644.48	889
645.052	929
645.624	923
646.196	927
646.768	906
647.34	930
647.912	922
648.483	920
649.055	936
649.627	924
650.199	896
650.77	901
651.342	926
651.913	884
652.485	909
653.056	889
653.628	902
654.199	910
654.77	910
655.341	892
655.912	917
656.483	935
657.054	936
657.625	897
658.196	955
658.767	921
659.338	911
659.909	917
660.479	907
661.05	879
661.621	859
662.191	937
662.762	929
663.332	925
663.902	927
664.473	920
665.043	938
665.613	931
666.183	916
666.753	973
667.324	893
667.894	958
668.463	887
669.033	888
669.603	918
670.173	943
670.743	892
671.312	916
671.882	921
672.452	876
673.021	903
673.59	904
674.16	935
674.729	901
675.299	914
675.868	945
676.437	940
677.006	904
677.575	892
678.144	900
678.713	901
679.282	908
679.851	865
680.42	921
680.988	884
681.557	901
682.126	903
682.694	871
683.263	912
683.831	876
684.4	867
684.968	906
685.537	913
686.105	954
686.673	905
687.241	901
687.809	927
688.377	913
688.945	906
689.513	887
690.081	925
690.649	893
691.217	901
691.785	921
692.352	900
692.92	892
693.487	911
694.055	882
694.622	941
695.19	917
695.757	889
696.324	902
696.892	892
697.459	895
698.026	872
698.593	939
699.16	924
699.727	905
700.294	912
700.861	913
701.428	905
701.995	922
702.561	931
703.128	948
703.695	922
704.261	882
704.828	889
705.394	879
705.96	921
706.527	909
707.093	932
707.659	926
708.225	912
708.792	874
709.358	926
709.924	869
710.49	925
711.055	897
711.621	884
712.187	905
712.753	892
713.319	903
713.884	891
714.45	926
715.015	894
715.581	907
716.146	899
716.712	885
717.277	894
717.842	878
718.407	914
718.973	878
719.538	864
720.103	901
720.668	883
721.233	900
721.797	879
722.362	898
722.927	885
723.492	895
724.057	870
724.621	923
725.186	875
725.75	858
726.315	886
726.879	883
727.443	878
728.008	877
728.572	900
729.136	894
729.7	905
730.264	866
730.828	892
731.392	868
731.956	904
732.52	879
733.084	855
733.648	853
734.211	905
734.775	915
735.339	886
735.902	924
736.466	903
737.029	901
737.593	879
738.156	901
738.719	890
739.282	875
739.846	900
740.409	902
740.972	878
741.535	879
742.098	891
742.661	870
743.224	876
743.786	890
744.349	897
744.912	870
745.474	884
746.037	899
746.6	901
747.162	870
747.724	856
748.287	905
748.849	885
749.411	864
749.974	884
750.536	924
751.098	924
751.66	881
752.222	907
752.784	881
753.346	884
753.908	862
754.469	864
755.031	877
755.593	869
756.155	856
756.716	887
757.278	916
757.839	887
758.401	907
758.962	889
759.523	915
760.084	888
760.646	904
761.207	887
761.768	868
762.329	882
762.89	866
763.451	886
764.012	896
764.573	896
765.133	896
765.694	894
766.255	866
766.815	880
767.376	890
767.936	912
768.497	853
769.057	883
769.618	892
770.178	900
770.738	869
771.298	871
771.858	873
772.419	918
772.979	869
773.539	925
774.099	914
774.658	889
775.218	903
775.778	872
776.338	876
776.897	897
777.457	868
778.016	877
778.576	890
779.135	897
779.695	877
780.254	925
780.813	886
781.373	916
781.932	897
782.491	895
783.05	896
783.609	899
784.168	889
784.727	861
785.286	883
785.845	882
786.403	867
786.962	883
787.521	898
788.079	865
788.638	877
789.196	892
789.755	884
790.313	892
790.872	883
791.43	889
791.988	893
792.546	918
793.104	897
793.662	904
794.22	864
794.778	894
795.336	888
795.894	863
796.452	893
797.01	887
797.567	902
798.125	861
798.683	851
799.24	842
799.798	877
800.355	877
800.912	874
801.47	898
802.027	917
802.584	913
803.141	871
803.699	827
804.256	890
804.813	894
805.37	884
805.926	913
806.483	845
807.04	884
807.597	867
808.153	868
808.71	867
809.267	876
809.823	884
810.38	873
810.936	868
811.493	890
812.049	878
812.605	893
813.161	878
813.717	871
814.274	883
814.83	879
815.386	912
815.942	895
816.497	893
817.053	889
817.609	863
818.165	866
818.721	880
819.276	877
819.832	886
820.387	848
820.943	894
821.498	873
822.054	866
822.609	887
823.164	877
823.719	874
824.274	859
824.83	881
825.385	913
825.94	857
826.495	882
827.049	901
827.604	888
828.159	884
828.714	880
829.268	855
829.823	883
830.378	895
830.932	880
831.487	875
832.041	840
832.595	883
833.15	860
833.704	894
834.258	909
834.812	890
835.366	890
835.92	890
836.474	844
837.028	865
837.582	873
838.136	861
838.69	894
839.244	887
839.797	872
840.351	869
840.905	903
841.458	863
842.012	810
842.565	864
843.118	899
843.672	860
844.225	870
844.778	879
845.331	880
845.884	878
846.437	882
846.99	860
847.543	888
848.096	855
848.649	867
849.202	882
849.755	884
850.307	878
850.86	886
851.412	876
851.965	882
852.517	896
853.07	885
853.622	887
854.174	899
854.727	880
855.279	875
855.831	869
856.383	858
856.935	912
857.487	870
858.039	849
858.591	891
859.143	848
859.695	872
860.246	835
860.798	908
861.35	834
861.901	868
862.453	860
863.004	876
863.556	898
864.107	880
864.658	836
865.21	897
865.761	846
866.312	842
866.863	899
867.414	871
867.965	879
868.516	926
869.067	868
869.618	846
870.169	872
870.719	868
871.27	917
871.821	852
872.371	883
872.922	856
873.472	885
874.023	881
874.573	887
875.123	871
875.674	908
876.224	883
876.774	847
877.324	844
877.874	877
878.424	878
878.974	869
879.524	840
880.074	872
880.623	870
881.173	893
881.723	851
882.273	844
882.822	855
883.372	872
883.921	884
884.471	881
885.02	849
885.569	863
886.118	883
886.668	867
887.217	843
887.766	854
888.315	859
888.864	854
889.413	850
889.962	844
890.511	859
891.06	877
891.608	845
892.157	856
892.706	847
893.254	866
893.803	898
894.351	873
894.9	846
895.448	892
895.996	847
896.545	869
897.093	854
897.641	847
898.189	875
898.737	905
899.285	843
899.833	885
900.381	843
900.929	917
901.477	854
902.024	866
902.572	881
903.12	860
903.667	865
904.215	840
904.762	872
905.31	857
905.857	862
906.404	898
906.952	851
907.499	872
908.046	862
908.593	861
909.14	889
909.687	844
910.234	825
910.781	869
911.328	872
911.875	878
912.422	871
912.968	880
913.515	846
914.062	867
914.608	882
915.155	836
915.701	854
916.247	881
916.794	873
917.34	876
917.886	876
918.432	876
918.979	863
919.525	908
920.071	897
920.617	881
921.163	850
921.708	862
922.254	840
922.8	887
923.346	868
923.891	850
924.437	843
924.983	843
925.528	861
926.074	848
926.619	882
927.164	829
927.71	859
928.255	864
928.8	870
929.345	852
929.89	856
930.435	838
930.98	828
931.525	859
932.07	861
932.615	838
933.16	856
933.704	864
934.249	859
934.794	878
935.338	870
935.883	859
936.427	835
936.972	871
937.516	861
938.06	876
938.605	860
939.149	866
939.693	893
940.237	857
940.781	859
941.325	858
941.869	869
942.413	889
942.957	889
943.501	878
944.044	863
944.588	862
945.132	864
945.675	903
946.219	876
946.762	861
947.306	871
947.849	910
948.392	876
948.936	822
949.479	860
950.022	869
950.565	873
951.108	896
951.651	845
952.194	896
952.737	890
953.28	863
953.823	879
954.365	868
954.908	872
955.451	886
955.993	852
956.536	868
957.078	865
957.621	866
958.163	878
958.705	862
959.248	865
959.79	879
960.332	857
960.874	844
961.416	862
961.958	872
962.5	863
963.042	894
963.584	834
964.126	838
964.668	869
965.209	870
965.751	870
966.293	884
966.834	863
967.376	843
967.917	822
968.459	866
969	862
969.541	868
970.082	926
970.624	829
971.165	861
971.706	855
972.247	891
972.788	871
973.329	852
973.87	897
974.411	888
974.951	848
975.492	909
976.033	850
976.573	870
977.114	882
977.654	866
978.195	843
978.735	824
979.276	850
979.816	860
980.356	846
980.897	890
981.437	854
981.977	858
982.517	879
983.057	869
983.597	886
984.137	875
984.677	889
985.216	853
985.756	910
986.296	890
986.835	888
987.375	879
987.915	885
988.454	855
988.993	846
989.533	860
990.072	856
990.611	888
991.151	879
991.69	865
992.229	858
992.768	870
993.307	840
993.846	862
994.385	840
994.924	874
995.463	860
996.001	824
996.54	841
997.079	852
997.617	854
998.156	848
998.695	868
999.233	875
999.771	890
1000.31	861
1000.848	875
1001.386	863
1001.924	874
1002.463	889
1003.001	869
1003.539	850
1004.077	862
1004.615	862
1005.153	866
1005.69	870
1006.228	836
1006.766	859
1007.304	880
1007.841	868
1008.379	887
1008.916	899
1009.454	865
1009.991	856
1010.529	842
1011.066	845
1011.603	906
1012.14	871
1012.678	883
1013.215	851
1013.752	856
1014.289	869
1014.826	883
1015.363	843
1015.9	866
1016.436	840
1016.973	856
1017.51	864
1018.046	851
1018.583	878
1019.12	865
1019.656	873
1020.193	902
1020.729	875
1021.265	837
1021.802	881
1022.338	849
1022.874	826
1023.41	864
1023.946	891
1024.482	835
1025.018	873
1025.554	904
1026.09	865
1026.626	870
1027.162	867
1027.697	882
1028.233	856
1028.769	882
1029.304	864
1029.84	848
1030.375	844
1030.911	866
1031.446	858
1031.981	824
1032.517	862
1033.052	875
1033.587	836
1034.122	893
1034.657	866
1035.192	847
1035.727	881
1036.262	863
1036.797	857
1037.332	863
1037.867	892
1038.401	865
1038.936	858
1039.47	862
1040.005	830
1040.54	865
1041.074	848
1041.608	840
1042.143	867
1042.677	848
1043.211	874
1043.745	894
1044.28	883
1044.814	873
1045.348	888
1045.882	853
1046.416	869
1046.949	903
1047.483	844
1048.017	868
1048.551	883
1049.085	874
1049.618	849
1050.152	894
1050.685	870
1051.219	829
1051.752	857
1052.286	870
1052.819	851
1053.352	876
1053.885	845
1054.418	866
1054.952	876
1055.485	863
1056.018	877
1056.551	893
1057.084	897
1057.616	865
1058.149	906
1058.682	860
1059.215	885
1059.747	860
1060.28	851
1060.812	850
1061.345	873
1061.877	870
1062.41	836
1062.942	857
1063.474	852
1064.007	892
1064.539	890
1065.071	870
1065.603	870
1066.135	861
1066.667	863
1067.199	843
1067.731	870
1068.263	898
1068.795	874
1069.326	878
1069.858	900
1070.39	890
1070.921	878
1071.453	862
1071.984	866
1072.516	903
1073.047	952
1073.578	928
1074.11	961
1074.641	947
1075.172	942
1075.703	975
1076.234	988
1076.765	984
1077.296	980
1077.827	1027
1078.358	1031
1078.889	1040
1079.42	1076
1079.95	1083
1080.481	1076
1081.012	1130
1081.542	1189
1082.073	1163
