324.497	1408
325.099	1421
325.701	1416
326.303	1471
326.905	1431
327.507	1377
328.109	1436
328.711	1361
329.313	1422
329.915	1374
330.517	1408
331.118	1361
331.72	1393
332.321	1383
332.923	1400
333.524	1370
334.126	1402
334.727	1397
335.328	1406
335.93	1375
336.531	1361
337.132	1341
337.733	1339
338.334	1328
338.935	1327
339.536	1371
340.137	1299
340.738	1368
341.338	1399
341.939	1339
342.54	1327
343.14	1336
343.741	1381
344.341	1333
344.941	1369
345.542	1320
346.142	1343
346.742	1332
347.342	1344
347.943	1328
348.543	1370
349.143	1300
349.742	1312
350.342	1329
350.942	1288
351.542	1365
352.142	1272
352.741	1356
353.341	1312
353.94	1322
354.54	1331
355.139	1357
355.739	1348
356.338	1262
356.937	1332
357.537	1332
358.136	1304
358.735	1296
359.334	1236
359.933	1276
360.532	1261
361.131	1292
361.729	1282
362.328	1309
362.927	1265
363.526	1292
364.124	1320
364.723	1330
365.321	1257
365.92	1314
366.518	1285
367.116	1280
367.715	1358
368.313	1278
368.911	1284
369.509	1290
370.107	1290
370.705	1228
371.303	1273
371.901	1273
372.499	1311
373.096	1286
373.694	1246
374.292	1214
374.889	1247
375.487	1267
376.084	1295
376.682	1225
377.279	1244
377.876	1248
378.474	1275
379.071	1212
379.668	1257
380.265	1252
380.862	1244
381.459	1234
382.056	1227
382.653	1216
383.249	1202
383.846	1248
384.443	1232
385.04	1225
385.636	1215
386.233	1149
386.829	1140
387.425	1124
388.022	1236
388.618	1202
389.214	1206
389.811	1212
390.407	1183
391.003	1214
391.599	1131
392.195	1189
392.791	1186
393.386	1183
393.982	1129
394.578	1199
395.174	1175
395.769	1166
396.365	1202
396.96	1253
397.556	1164
398.151	1182
398.747	1190
399.342	1169
399.937	1185
400.532	1145
401.127	1186
401.723	1188
402.318	1143
402.912	1176
403.507	1237
404.102	1180
404.697	1234
405.292	1179
405.886	1238
406.481	1190
407.076	1188
407.67	1175
408.265	1175
408.859	1187
409.453	1151
410.048	1184
410.642	1182
411.236	1157
411.83	1145
412.424	1154
413.018	1207
413.612	1190
414.206	1169
414.8	1141
415.394	1174
415.987	1164
416.581	1166
417.175	1159
417.768	1164
418.362	1133
418.955	1156
419.549	1141
420.142	1173
420.735	1150
421.328	1140
421.922	1157
422.515	1165
423.108	1140
423.701	1105
424.294	1136
424.887	1158
425.479	1147
426.072	1149
426.665	1158
427.258	1140
427.85	1116
428.443	1121
429.035	1158
429.628	1174
430.22	1128
430.813	1139
431.405	1099
431.997	1117
432.589	1115
433.181	1126
433.773	1132
434.365	1148
434.957	1082
435.549	1103
436.141	1122
436.733	1088
437.325	1094
437.916	1133
438.508	1117
439.099	1103
439.691	1122
440.282	1126
440.874	1127
441.465	1136
442.056	1188
442.648	1114
443.239	1149
443.83	1072
444.421	1179
445.012	1134
445.603	1125
446.194	1147
446.785	1148
447.375	1061
447.966	1131
448.557	1129
449.147	1126
449.738	1114
450.328	1075
450.919	1091
451.509	1122
452.1	1118
452.69	1116
453.28	1077
453.87	1144
454.46	1136
455.051	1144
455.641	1097
456.23	1091
456.82	1137
457.41	1115
458	1128
458.59	1136
459.179	1093
459.769	1112
460.359	1129
460.948	1114
461.538	1119
462.127	1117
462.716	1065
463.306	1104
463.895	1067
464.484	1109
465.073	1073
465.662	1090
466.251	1132
466.84	1118
467.429	1083
468.018	1106
468.607	1088
469.195	1113
469.784	1088
470.373	1083
470.961	1105
471.55	1084
472.138	1094
472.727	1077
473.315	1058
473.903	1095
474.491	1081
475.08	1165
475.668	1100
476.256	1098
476.844	1072
477.432	1132
478.02	1095
478.608	1103
479.195	1056
479.783	1096
480.371	1132
480.958	1104
481.546	1165
482.133	1138
482.721	1119
483.308	1134
483.896	1163
484.483	1171
485.07	1145
485.657	1124
486.245	1148
486.832	1133
487.419	1076
488.006	1139
488.592	1121
489.179	1123
489.766	1138
490.353	1073
490.94	1091
491.526	1062
492.113	1081
492.699	1003
493.286	1085
493.872	1041
494.459	1080
495.045	1051
495.631	1085
496.217	1034
496.803	1088
497.389	1062
497.976	1076
498.561	1069
499.147	1055
499.733	1054
500.319	1046
500.905	1060
501.49	1013
502.076	1011
502.662	1022
503.247	1097
503.833	1056
504.418	1068
505.004	1042
505.589	1090
506.174	1033
506.759	1053
507.344	1075
507.929	1047
508.515	1033
509.1	1033
509.684	1050
510.269	1110
510.854	1032
511.439	1078
512.024	1061
512.608	1017
513.193	1044
513.777	1014
514.362	1051
514.946	998
515.531	1044
516.115	1098
516.699	1013
517.283	1045
517.868	1068
518.452	1035
519.036	1071
519.62	1043
520.204	1054
520.788	1030
521.371	998
521.955	988
522.539	1037
523.122	1077
523.706	1029
524.29	1036
524.873	1027
525.457	1045
526.04	1030
526.623	1077
527.207	1052
527.79	1035
528.373	1105
528.956	1058
529.539	1069
530.122	1048
530.705	1061
531.288	1048
531.871	1097
532.454	1119
533.036	1087
533.619	1036
534.202	1029
534.784	1044
535.367	1024
535.949	1061
536.531	1032
537.114	967
537.696	1037
538.278	1031
538.861	1057
539.443	1014
540.025	1006
540.607	1007
541.189	998
541.771	1024
542.352	1032
542.934	1002
543.516	993
544.098	1019
544.679	1059
545.261	1050
545.842	1019
546.424	1003
547.005	1001
547.587	996
548.168	1033
548.749	1031
549.33	1027
549.911	992
550.493	1012
551.074	1025
551.655	994
552.235	980
552.816	1019
553.397	1036
553.978	1004
554.559	997
555.139	1011
555.72	965
556.3	1026
556.881	1004
557.461	1013
558.042	995
558.622	999
559.202	982
559.782	1007
560.362	994
560.943	979
561.523	955
562.103	1004
562.683	1006
563.262	1054
563.842	1000
564.422	991
565.002	959
565.581	1037
566.161	1017
566.741	985
567.32	989
567.899	998
568.479	962
569.058	1011
569.637	931
570.217	1003
570.796	995
571.375	1015
571.954	1005
572.533	982
573.112	995
573.691	962
574.27	964
574.848	985
575.427	1017
576.006	965
576.584	978
577.163	991
577.742	973
578.32	986
578.898	958
579.477	994
580.055	982
580.633	988
581.211	988
581.79	995
582.368	990
582.946	999
583.524	998
584.102	1016
584.679	967
585.257	953
585.835	1032
586.413	959
586.99	932
587.568	953
588.145	978
588.723	975
589.3	1021
589.878	979
590.455	997
591.032	963
591.609	990
592.187	952
592.764	997
593.341	1007
593.918	988
594.495	996
595.072	967
595.648	943
596.225	997
596.802	974
597.378	955
597.955	980
598.532	974
599.108	1006
599.685	1001
600.261	990
600.837	961
601.414	948
601.99	967
602.566	1028
603.142	968
603.718	994
604.294	1001
604.87	959
605.446	951
606.022	983
606.598	956
607.173	962
607.749	1009
608.325	977
608.9	991
609.476	995
610.051	1004
610.627	939
611.202	974
611.777	993
612.352	980
612.928	960
613.503	957
614.078	984
614.653	977
615.228	971
615.803	962
616.378	975
616.952	940
617.527	972
618.102	995
618.677	993
619.251	970
619.826	983
620.4	991
620.975	979
621.549	957
622.123	963
622.698	973
623.272	980
623.846	954
624.42	966
624.994	944
625.568	973
626.142	974
626.716	989
627.29	973
627.864	984
628.437	962
629.011	984
629.585	970
630.158	949
630.732	963
631.305	938
631.878	996
632.452	933
633.025	955
633.598	952
634.172	991
634.745	980
635.318	977
635.891	991
636.464	966
637.037	936
637.609	978
638.182	973
638.755	965
639.328	952
639.9	946
640.473	952
641.045	965
641.618	950
642.19	962
642.763	914
643.335	970
643.907	959
644.48	969
645.052	965
645.624	976
646.196	920
646.768	969
647.34	999
647.912	979
648.483	945
649.055	998
649.627	954
650.199	975
650.77	978
651.342	935
651.913	961
652.485	954
653.056	987
653.628	939
654.199	977
654.77	993
655.341	966
655.912	954
656.483	939
657.054	947
657.625	949
658.196	956
658.767	954
659.338	987
659.909	989
660.479	968
661.05	940
661.621	926
662.191	938
662.762	984
663.332	971
663.902	967
664.473	966
665.043	976
665.613	938
666.183	957
666.753	960
667.324	956
667.894	934
668.463	921
669.033	922
669.603	944
670.173	963
670.743	929
671.312	981
671.882	947
672.452	934
673.021	966
673.59	956
674.16	960
674.729	985
675.299	962
675.868	951
676.437	961
677.006	952
677.575	937
678.144	968
678.713	921
679.282	913
679.851	983
680.42	966
680.988	917
681.557	940
682.126	922
682.694	946
683.263	958
683.831	901
684.4	946
684.968	943
685.537	933
686.105	935
686.673	925
687.241	946
687.809	957
688.377	909
688.945	958
689.513	969
690.081	932
690.649	948
691.217	948
691.785	950
692.352	1005
692.92	947
693.487	928
694.055	933
694.622	967
695.19	945
695.757	966
696.324	974
696.892	941
697.459	946
698.026	956
698.593	975
699.16	947
699.727	934
700.294	985
700.861	954
701.428	956
701.995	979
702.561	964
703.128	960
703.695	978
704.261	983
704.828	938
705.394	996
705.96	952
706.527	940
707.093	949
707.659	983
708.225	959
708.792	936
709.358	963
709.924	941
710.49	957
711.055	954
711.621	936
712.187	951
712.753	943
713.319	971
713.884	939
714.45	946
715.015	937
715.581	922
716.146	930
716.712	949
717.277	940
717.842	958
718.407	980
718.973	953
719.538	924
720.103	922
720.668	961
721.233	946
721.797	938
722.362	930
722.927	909
723.492	956
724.057	952
724.621	934
725.186	903
725.75	937
726.315	929
726.879	944
727.443	943
728.008	959
728.572	928
729.136	940
729.7	968
730.264	937
730.828	927
731.392	936
731.956	934
732.52	927
733.084	938
733.648	939
734.211	906
734.775	947
735.339	925
735.902	920
736.466	957
737.029	937
737.593	981
738.156	909
738.719	935
739.282	910
739.846	934
740.409	936
740.972	935
741.535	976
742.098	928
742.661	904
743.224	957
743.786	951
744.349	970
744.912	933
745.474	927
746.037	950
746.6	938
747.162	964
747.724	948
748.287	940
748.849	893
749.411	947
749.974	949
750.536	974
751.098	968
751.66	914
752.222	924
752.784	948
753.346	933
753.908	909
754.469	896
755.031	955
755.593	925
756.155	919
756.716	960
757.278	914
757.839	924
758.401	929
758.962	944
759.523	969
760.084	917
760.646	907
761.207	914
761.768	921
762.329	928
762.89	923
763.451	892
764.012	931
764.573	903
765.133	947
765.694	940
766.255	911
766.815	915
767.376	929
767.936	948
768.497	950
769.057	913
769.618	941
770.178	929
770.738	922
771.298	930
771.858	919
772.419	930
772.979	936
773.539	906
774.099	931
774.658	930
775.218	941
775.778	952
776.338	935
776.897	942
777.457	940
778.016	919
778.576	935
779.135	927
779.695	922
780.254	889
780.813	933
781.373	913
781.932	926
782.491	954
783.05	955
783.609	929
784.168	935
784.727	917
785.286	944
785.845	948
786.403	964
786.962	956
787.521	961
788.079	969
788.638	940
789.196	938
789.755	969
790.313	956
790.872	959
791.43	961
791.988	965
792.546	899
793.104	965
793.662	969
794.22	966
794.778	962
795.336	927
795.894	912
796.452	983
797.01	957
797.567	1000
798.125	937
798.683	920
799.24	960
799.798	946
800.355	920
800.912	937
801.47	982
802.027	941
802.584	939
803.141	912
803.699	940
804.256	955
804.813	919
805.37	945
805.926	959
806.483	984
807.04	963
807.597	933
808.153	936
808.71	953
809.267	942
809.823	952
810.38	970
810.936	952
811.493	916
812.049	932
812.605	958
813.161	931
813.717	980
814.274	989
814.83	924
815.386	925
815.942	980
816.497	941
817.053	939
817.609	942
818.165	948
818.721	958
819.276	909
819.832	934
820.387	967
820.943	939
821.498	921
822.054	937
822.609	929
823.164	907
823.719	937
824.274	936
824.83	932
825.385	915
825.94	948
826.495	933
827.049	914
827.604	919
828.159	938
828.714	950
829.268	946
829.823	952
830.378	903
830.932	932
831.487	956
832.041	953
832.595	938
833.15	907
833.704	948
834.258	920
834.812	904
835.366	917
835.92	965
836.474	899
837.028	936
837.582	946
838.136	917
838.69	966
839.244	940
839.797	913
840.351	938
840.905	923
841.458	940
842.012	899
842.565	930
843.118	923
843.672	866
844.225	907
844.778	909
845.331	971
845.884	935
846.437	936
846.99	902
847.543	932
848.096	920
848.649	910
849.202	904
849.755	909
850.307	930
850.86	939
851.412	915
851.965	898
852.517	928
853.07	909
853.622	928
854.174	922
854.727	914
855.279	911
855.831	903
856.383	916
856.935	929
857.487	909
858.039	918
858.591	904
859.143	923
859.695	943
860.246	876
860.798	916
861.35	932
861.901	933
862.453	930
863.004	894
863.556	909
864.107	944
864.658	913
865.21	931
865.761	924
866.312	899
866.863	897
867.414	924
867.965	934
868.516	925
869.067	931
869.618	903
870.169	891
870.719	891
871.27	926
871.821	905
872.371	896
872.922	892
873.472	914
874.023	908
874.573	907
875.123	925
875.674	891
876.224	923
876.774	912
877.324	904
877.874	897
878.424	892
878.974	903
879.524	892
880.074	915
880.623	913
881.173	906
881.723	900
882.273	942
882.822	949
883.372	888
883.921	924
884.471	907
885.02	946
885.569	881
886.118	913
886.668	891
887.217	895
887.766	929
888.315	902
888.864	888
889.413	920
889.962	918
890.511	930
891.06	889
891.608	898
892.157	904
892.706	919
893.254	950
893.803	921
894.351	913
894.9	876
895.448	899
895.996	897
896.545	923
897.093	902
897.641	915
898.189	918
898.737	917
899.285	888
899.833	915
900.381	938
900.929	927
901.477	933
902.024	894
902.572	925
903.12	929
903.667	930
904.215	940
904.762	900
905.31	880
905.857	937
906.404	965
906.952	921
907.499	891
908.046	864
908.593	918
909.14	905
909.687	881
910.234	898
910.781	894
911.328	922
911.875	917
912.422	870
912.968	921
913.515	914
914.062	919
914.608	888
915.155	917
915.701	912
916.247	909
916.794	902
917.34	913
917.886	936
918.432	894
918.979	933
919.525	899
920.071	890
920.617	933
921.163	914
921.708	908
922.254	913
922.8	920
923.346	895
923.891	891
924.437	891
924.983	910
925.528	961
926.074	958
926.619	940
927.164	929
927.71	902
928.255	921
928.8	905
929.345	931
929.89	892
930.435	895
930.98	935
931.525	905
932.07	895
932.615	876
933.16	916
933.704	928
934.249	924
934.794	915
935.338	903
935.883	898
936.427	889
936.972	895
937.516	904
938.06	931
938.605	924
939.149	908
939.693	913
940.237	893
940.781	898
941.325	877
941.869	919
942.413	894
942.957	959
943.501	887
944.044	874
944.588	887
945.132	934
945.675	938
946.219	917
946.762	926
947.306	918
947.849	913
948.392	906
948.936	911
949.479	893
950.022	893
950.565	899
951.108	914
951.651	916
952.194	908
952.737	915
953.28	896
953.823	933
954.365	921
954.908	919
955.451	901
955.993	893
956.536	923
957.078	938
957.621	901
958.163	910
958.705	949
959.248	921
959.79	882
960.332	948
960.874	926
961.416	928
961.958	918
962.5	913
963.042	922
963.584	927
964.126	920
964.668	920
965.209	901
965.751	928
966.293	931
966.834	909
967.376	902
967.917	933
968.459	928
969	889
969.541	905
970.082	957
970.624	879
971.165	880
971.706	942
972.247	919
972.788	903
973.329	907
973.87	922
974.411	914
974.951	933
975.492	939
976.033	888
976.573	874
977.114	908
977.654	900
978.195	882
978.735	890
979.276	930
979.816	923
980.356	923
980.897	953
981.437	943
981.977	943
982.517	944
983.057	925
983.597	909
984.137	929
984.677	938
985.216	887
985.756	905
986.296	906
986.835	911
987.375	936
987.915	918
988.454	940
988.993	904
989.533	914
990.072	879
990.611	921
991.151	929
991.69	905
992.229	934
992.768	935
993.307	906
993.846	932
994.385	930
994.924	918
995.463	900
996.001	899
996.54	877
997.079	912
997.617	885
998.156	906
998.695	932
999.233	916
999.771	898
1000.31	955
1000.848	896
1001.386	904
1001.924	912
1002.463	903
1003.001	920
1003.539	903
1004.077	905
1004.615	909
1005.153	877
1005.69	898
1006.228	895
1006.766	887
1007.304	932
1007.841	903
1008.379	904
1008.916	899
1009.454	897
1009.991	893
1010.529	912
1011.066	916
1011.603	879
1012.14	921
1012.678	865
1013.215	901
1013.752	914
1014.289	887
1014.826	920
1015.363	894
1015.9	912
1016.436	910
1016.973	920
1017.51	890
1018.046	926
1018.583	920
1019.12	886
1019.656	896
1020.193	915
1020.729	945
1021.265	912
1021.802	902
1022.338	890
1022.874	910
1023.41	934
1023.946	937
1024.482	932
1025.018	936
1025.554	869
1026.09	881
1026.626	921
1027.162	923
1027.697	891
1028.233	890
1028.769	891
1029.304	908
1029.84	919
1030.375	928
1030.911	922
1031.446	923
1031.981	935
1032.517	936
1033.052	947
1033.587	907
1034.122	939
1034.657	911
1035.192	933
1035.727	938
1036.262	936
1036.797	912
1037.332	940
1037.867	921
1038.401	950
1038.936	911
1039.47	907
1040.005	904
1040.54	928
1041.074	956
1041.608	931
1042.143	929
1042.677	891
1043.211	935
1043.745	903
1044.28	877
1044.814	940
1045.348	929
1045.882	900
1046.416	932
1046.949	927
1047.483	950
1048.017	939
1048.551	960
1049.085	932
1049.618	936
1050.152	906
1050.685	938
1051.219	922
1051.752	923
1052.286	957
1052.819	919
1053.352	939
1053.885	953
1054.418	947
1054.952	904
1055.485	929
1056.018	942
1056.551	924
1057.084	930
1057.616	933
1058.149	923
1058.682	971
1059.215	982
1059.747	924
1060.28	980
1060.812	953
1061.345	957
1061.877	950
1062.41	934
1062.942	978
1063.474	929
1064.007	973
1064.539	972
1065.071	922
1065.603	940
1066.135	983
1066.667	964
1067.199	943
1067.731	963
1068.263	982
1068.795	941
1069.326	999
1069.858	1029
1070.39	1066
1070.921	1007
1071.453	1001
1071.984	1055
1072.516	1094
1073.047	1054
1073.578	1114
1074.11	1133
1074.641	1151
1075.172	1199
1075.703	1216
1076.234	1267
1076.765	1317
1077.296	1317
1077.827	1369
1078.358	1419
1078.889	1472
1079.42	1553
1079.95	1623
1080.481	1628
1081.012	1732
1081.542	1825
1082.073	1908
