324.497	1315
325.099	1334
325.701	1309
326.303	1296
326.905	1298
327.507	1257
328.109	1271
328.711	1364
329.313	1269
329.915	1282
330.517	1276
331.118	1324
331.72	1314
332.321	1276
332.923	1258
333.524	1276
334.126	1257
334.727	1248
335.328	1217
335.93	1246
336.531	1238
337.132	1297
337.733	1224
338.334	1273
338.935	1302
339.536	1246
340.137	1268
340.738	1269
341.338	1253
341.939	1222
342.54	1216
343.14	1218
343.741	1221
344.341	1224
344.941	1253
345.542	1250
346.142	1224
346.742	1270
347.342	1233
347.943	1194
348.543	1254
349.143	1188
349.742	1216
350.342	1249
350.942	1255
351.542	1254
352.142	1240
352.741	1255
353.341	1289
353.94	1177
354.54	1248
355.139	1252
355.739	1205
356.338	1218
356.937	1200
357.537	1178
358.136	1174
358.735	1243
359.334	1189
359.933	1132
360.532	1219
361.131	1250
361.729	1163
362.328	1207
362.927	1224
363.526	1175
364.124	1146
364.723	1208
365.321	1193
365.92	1228
366.518	1168
367.116	1125
367.715	1165
368.313	1201
368.911	1211
369.509	1191
370.107	1164
370.705	1167
371.303	1218
371.901	1158
372.499	1194
373.096	1198
373.694	1197
374.292	1161
374.889	1137
375.487	1142
376.084	1186
376.682	1141
377.279	1165
377.876	1143
378.474	1172
379.071	1197
379.668	1215
380.265	1125
380.862	1187
381.459	1142
382.056	1134
382.653	1151
383.249	1148
383.846	1155
384.443	1134
385.04	1140
385.636	1156
386.233	1129
386.829	1141
387.425	1158
388.022	1126
388.618	1178
389.214	1074
389.811	1120
390.407	1115
391.003	1180
391.599	1104
392.195	1101
392.791	1119
393.386	1093
393.982	1112
394.578	1108
395.174	1113
395.769	1107
396.365	1113
396.96	1091
397.556	1150
398.151	1131
398.747	1137
399.342	1119
399.937	1135
400.532	1143
401.127	1098
401.723	1144
402.318	1130
402.912	1102
403.507	1119
404.102	1096
404.697	1082
405.292	1132
405.886	1134
406.481	1117
407.076	1091
407.67	1132
408.265	1122
408.859	1089
409.453	1092
410.048	1096
410.642	1102
411.236	1125
411.83	1120
412.424	1105
413.018	1132
413.612	1121
414.206	1100
414.8	1079
415.394	1149
415.987	1085
416.581	1080
417.175	1081
417.768	1061
418.362	1056
418.955	1063
419.549	1085
420.142	1104
420.735	1131
421.328	1119
421.922	1044
422.515	1108
423.108	1058
423.701	1028
424.294	1044
424.887	1061
425.479	1044
426.072	1059
426.665	1043
427.258	1097
427.85	1074
428.443	1076
429.035	1077
429.628	1064
430.22	1055
430.813	1090
431.405	1045
431.997	1065
432.589	1110
433.181	1046
433.773	1028
434.365	1062
434.957	1088
435.549	1077
436.141	1034
436.733	1014
437.325	1036
437.916	1067
438.508	1058
439.099	1027
439.691	1079
440.282	1044
440.874	1045
441.465	1057
442.056	1121
442.648	1110
443.239	1063
443.83	1051
444.421	1068
445.012	1027
445.603	1067
446.194	1038
446.785	1091
447.375	1042
447.966	1093
448.557	1077
449.147	1048
449.738	1082
450.328	1057
450.919	1061
451.509	1087
452.1	1052
452.69	1055
453.28	1046
453.87	1047
454.46	1102
455.051	1042
455.641	1025
456.23	1024
456.82	1067
457.41	1086
458	1081
458.59	1079
459.179	1029
459.769	1035
460.359	1079
460.948	1033
461.538	1031
462.127	1056
462.716	1042
463.306	1042
463.895	1036
464.484	1049
465.073	1014
465.662	1089
466.251	1032
466.84	1039
467.429	1052
468.018	1018
468.607	1048
469.195	1018
469.784	1039
470.373	1030
470.961	1059
471.55	1035
472.138	1036
472.727	1046
473.315	1041
473.903	1069
474.491	1028
475.08	1028
475.668	1033
476.256	1042
476.844	1068
477.432	1046
478.02	1029
478.608	1026
479.195	1007
479.783	1019
480.371	1112
480.958	1123
481.546	1113
482.133	1053
482.721	1064
483.308	1090
483.896	1094
484.483	1080
485.07	1102
485.657	1107
486.245	1082
486.832	1100
487.419	1082
488.006	1044
488.592	1047
489.179	1098
489.766	1051
490.353	1089
490.94	1027
491.526	986
492.113	1036
492.699	1019
493.286	976
493.872	1001
494.459	1007
495.045	1016
495.631	1014
496.217	1001
496.803	1043
497.389	1014
497.976	1015
498.561	993
499.147	1004
499.733	1033
500.319	1001
500.905	1018
501.49	992
502.076	986
502.662	1010
503.247	986
503.833	1008
504.418	1009
505.004	1017
505.589	1046
506.174	984
506.759	1036
507.344	992
507.929	938
508.515	1001
509.1	1029
509.684	1025
510.269	1031
510.854	977
511.439	1042
512.024	1023
512.608	987
513.193	970
513.777	991
514.362	990
514.946	989
515.531	992
516.115	1038
516.699	981
517.283	982
517.868	970
518.452	1014
519.036	964
519.62	1009
520.204	1017
520.788	971
521.371	990
521.955	983
522.539	1014
523.122	997
523.706	1014
524.29	1005
524.873	989
525.457	1035
526.04	1072
526.623	1042
527.207	1051
527.79	1097
528.373	1067
528.956	1138
529.539	1118
530.122	1109
530.705	1077
531.288	1090
531.871	1094
532.454	1051
533.036	1064
533.619	1087
534.202	1034
534.784	1035
535.367	1027
535.949	1049
536.531	1006
537.114	972
537.696	987
538.278	1005
538.861	1016
539.443	976
540.025	931
540.607	1007
541.189	1034
541.771	976
542.352	954
542.934	968
543.516	990
544.098	1004
544.679	1005
545.261	984
545.842	975
546.424	972
547.005	984
547.587	979
548.168	972
548.749	939
549.33	957
549.911	982
550.493	985
551.074	961
551.655	951
552.235	958
552.816	982
553.397	971
553.978	958
554.559	950
555.139	962
555.72	970
556.3	984
556.881	951
557.461	929
558.042	953
558.622	956
559.202	952
559.782	977
560.362	962
560.943	986
561.523	967
562.103	956
562.683	952
563.262	987
563.842	975
564.422	963
565.002	994
565.581	973
566.161	967
566.741	952
567.32	983
567.899	985
568.479	982
569.058	975
569.637	979
570.217	999
570.796	983
571.375	936
571.954	963
572.533	960
573.112	965
573.691	948
574.27	930
574.848	980
575.427	953
576.006	985
576.584	940
577.163	981
577.742	964
578.32	967
578.898	981
579.477	963
580.055	974
580.633	978
581.211	968
581.79	988
582.368	935
582.946	955
583.524	990
584.102	987
584.679	943
585.257	944
585.835	975
586.413	944
586.99	921
587.568	959
588.145	963
588.723	939
589.3	926
589.878	937
590.455	962
591.032	973
591.609	954
592.187	919
592.764	964
593.341	973
593.918	921
594.495	964
595.072	959
595.648	967
596.225	960
596.802	919
597.378	935
597.955	933
598.532	954
599.108	975
599.685	941
600.261	949
600.837	993
601.414	953
601.99	965
602.566	962
603.142	963
603.718	936
604.294	957
604.87	932
605.446	964
606.022	923
606.598	953
607.173	950
607.749	971
608.325	991
608.9	957
609.476	924
610.051	953
610.627	938
611.202	970
611.777	961
612.352	970
612.928	941
613.503	936
614.078	957
614.653	977
615.228	926
615.803	939
616.378	953
616.952	955
617.527	943
618.102	957
618.677	962
619.251	945
619.826	957
620.4	969
620.975	964
621.549	932
622.123	976
622.698	923
623.272	937
623.846	953
624.42	981
624.994	971
625.568	945
626.142	967
626.716	961
627.29	932
627.864	932
628.437	970
629.011	954
629.585	935
630.158	927
630.732	902
631.305	960
631.878	943
632.452	897
633.025	955
633.598	964
634.172	893
634.745	915
635.318	949
635.891	957
636.464	928
637.037	935
637.609	957
638.182	967
638.755	957
639.328	965
639.9	926
640.473	958
641.045	943
641.618	924
642.19	937
642.763	941
643.335	945
643.907	971
644.48	956
645.052	932
645.624	952
646.196	977
646.768	941
647.34	961
647.912	933
648.483	936
649.055	946
649.627	934
650.199	946
650.77	931
651.342	989
651.913	928
652.485	919
653.056	921
653.628	920
654.199	980
654.77	940
655.341	954
655.912	928
656.483	946
657.054	915
657.625	935
658.196	992
658.767	914
659.338	916
659.909	955
660.479	899
661.05	924
661.621	928
662.191	925
662.762	958
663.332	942
663.902	950
664.473	926
665.043	940
665.613	926
666.183	923
666.753	959
667.324	937
667.894	938
668.463	924
669.033	922
669.603	934
670.173	953
670.743	936
671.312	921
671.882	961
672.452	940
673.021	940
673.59	899
674.16	941
674.729	946
675.299	935
675.868	936
676.437	954
677.006	959
677.575	962
678.144	922
678.713	966
679.282	971
679.851	934
680.42	955
680.988	929
681.557	904
682.126	936
682.694	934
683.263	944
683.831	913
684.4	931
684.968	909
685.537	932
686.105	893
686.673	915
687.241	941
687.809	920
688.377	960
688.945	944
689.513	933
690.081	922
690.649	904
691.217	935
691.785	914
692.352	944
692.92	895
693.487	909
694.055	945
694.622	943
695.19	917
695.757	913
696.324	912
696.892	900
697.459	920
698.026	912
698.593	951
699.16	960
699.727	961
700.294	924
700.861	939
701.428	967
701.995	944
702.561	929
703.128	949
703.695	895
704.261	939
704.828	944
705.394	944
705.96	919
706.527	897
707.093	968
707.659	942
708.225	931
708.792	994
709.358	916
709.924	919
710.49	904
711.055	922
711.621	925
712.187	888
712.753	956
713.319	904
713.884	900
714.45	939
715.015	924
715.581	953
716.146	908
716.712	916
717.277	882
717.842	925
718.407	929
718.973	952
719.538	914
720.103	901
720.668	882
721.233	966
721.797	900
722.362	922
722.927	898
723.492	942
724.057	908
724.621	938
725.186	900
725.75	951
726.315	877
726.879	946
727.443	912
728.008	961
728.572	947
729.136	955
729.7	927
730.264	914
730.828	945
731.392	956
731.956	919
732.52	907
733.084	925
733.648	926
734.211	912
734.775	882
735.339	957
735.902	917
736.466	920
737.029	926
737.593	901
738.156	938
738.719	923
739.282	948
739.846	922
740.409	908
740.972	926
741.535	901
742.098	905
742.661	898
743.224	905
743.786	908
744.349	920
744.912	894
745.474	905
746.037	871
746.6	930
747.162	936
747.724	916
748.287	951
748.849	898
749.411	924
749.974	921
750.536	903
751.098	917
751.66	920
752.222	876
752.784	899
753.346	896
753.908	932
754.469	944
755.031	927
755.593	950
756.155	919
756.716	881
757.278	926
757.839	909
758.401	905
758.962	946
759.523	933
760.084	901
760.646	889
761.207	940
761.768	918
762.329	947
762.89	927
763.451	900
764.012	923
764.573	905
765.133	911
765.694	900
766.255	919
766.815	939
767.376	936
767.936	881
768.497	886
769.057	928
769.618	924
770.178	923
770.738	889
771.298	887
771.858	913
772.419	904
772.979	943
773.539	920
774.099	936
774.658	927
775.218	910
775.778	926
776.338	908
776.897	921
777.457	915
778.016	929
778.576	959
779.135	905
779.695	926
780.254	910
780.813	905
781.373	928
781.932	948
782.491	896
783.05	950
783.609	939
784.168	948
784.727	936
785.286	957
785.845	928
786.403	934
786.962	941
787.521	937
788.079	956
788.638	928
789.196	901
789.755	934
790.313	925
790.872	928
791.43	966
791.988	935
792.546	914
793.104	943
793.662	949
794.22	896
794.778	937
795.336	932
795.894	970
796.452	960
797.01	928
797.567	945
798.125	935
798.683	929
799.24	947
799.798	942
800.355	955
800.912	871
801.47	912
802.027	925
802.584	980
803.141	945
803.699	926
804.256	911
804.813	939
805.37	964
805.926	935
806.483	901
807.04	917
807.597	918
808.153	941
808.71	928
809.267	921
809.823	947
810.38	940
810.936	929
811.493	896
812.049	926
812.605	911
813.161	924
813.717	907
814.274	902
814.83	929
815.386	957
815.942	923
816.497	915
817.053	919
817.609	920
818.165	964
818.721	944
819.276	936
819.832	939
820.387	912
820.943	911
821.498	923
822.054	949
822.609	938
823.164	913
823.719	903
824.274	908
824.83	915
825.385	903
825.94	929
826.495	908
827.049	925
827.604	896
828.159	965
828.714	908
829.268	906
829.823	923
830.378	924
830.932	925
831.487	915
832.041	930
832.595	916
833.15	940
833.704	929
834.258	940
834.812	917
835.366	918
835.92	916
836.474	888
837.028	900
837.582	898
838.136	924
838.69	883
839.244	884
839.797	925
840.351	927
840.905	904
841.458	919
842.012	917
842.565	967
843.118	920
843.672	930
844.225	915
844.778	917
845.331	898
845.884	904
846.437	931
846.99	907
847.543	923
848.096	902
848.649	899
849.202	908
849.755	908
850.307	908
850.86	919
851.412	928
851.965	911
852.517	903
853.07	890
853.622	890
854.174	915
854.727	888
855.279	903
855.831	899
856.383	895
856.935	933
857.487	907
858.039	914
858.591	909
859.143	915
859.695	929
860.246	882
860.798	886
861.35	903
861.901	883
862.453	888
863.004	913
863.556	929
864.107	933
864.658	909
865.21	942
865.761	886
866.312	902
866.863	948
867.414	914
867.965	874
868.516	915
869.067	912
869.618	891
870.169	881
870.719	900
871.27	883
871.821	897
872.371	918
872.922	893
873.472	885
874.023	889
874.573	905
875.123	871
875.674	924
876.224	887
876.774	875
877.324	888
877.874	877
878.424	882
878.974	902
879.524	889
880.074	882
880.623	891
881.173	912
881.723	897
882.273	895
882.822	882
883.372	923
883.921	900
884.471	882
885.02	888
885.569	912
886.118	880
886.668	899
887.217	902
887.766	905
888.315	921
888.864	902
889.413	890
889.962	897
890.511	884
891.06	877
891.608	887
892.157	928
892.706	915
893.254	893
893.803	900
894.351	863
894.9	892
895.448	911
895.996	903
896.545	897
897.093	896
897.641	914
898.189	876
898.737	898
899.285	877
899.833	922
900.381	910
900.929	878
901.477	910
902.024	896
902.572	908
903.12	873
903.667	909
904.215	857
904.762	929
905.31	890
905.857	918
906.404	895
906.952	930
907.499	908
908.046	935
908.593	903
909.14	899
909.687	930
910.234	897
910.781	927
911.328	899
911.875	910
912.422	882
912.968	886
913.515	894
914.062	899
914.608	904
915.155	923
915.701	883
916.247	910
916.794	903
917.34	920
917.886	930
918.432	905
918.979	883
919.525	887
920.071	894
920.617	916
921.163	905
921.708	905
922.254	906
922.8	899
923.346	894
923.891	906
924.437	917
924.983	911
925.528	936
926.074	903
926.619	927
927.164	892
927.71	888
928.255	932
928.8	873
929.345	904
929.89	882
930.435	905
930.98	889
931.525	917
932.07	879
932.615	887
933.16	885
933.704	885
934.249	919
934.794	906
935.338	930
935.883	913
936.427	873
936.972	896
937.516	927
938.06	905
938.605	902
939.149	901
939.693	896
940.237	875
940.781	906
941.325	897
941.869	911
942.413	885
942.957	915
943.501	878
944.044	929
944.588	891
945.132	876
945.675	917
946.219	920
946.762	871
947.306	904
947.849	912
948.392	894
948.936	894
949.479	883
950.022	875
950.565	900
951.108	897
951.651	881
952.194	900
952.737	901
953.28	862
953.823	910
954.365	891
954.908	894
955.451	866
955.993	916
956.536	880
957.078	882
957.621	904
958.163	885
958.705	872
959.248	904
959.79	889
960.332	922
960.874	914
961.416	904
961.958	914
962.5	903
963.042	882
963.584	927
964.126	911
964.668	909
965.209	903
965.751	904
966.293	912
966.834	908
967.376	933
967.917	916
968.459	948
969	891
969.541	915
970.082	926
970.624	920
971.165	910
971.706	915
972.247	881
972.788	883
973.329	892
973.87	894
974.411	909
974.951	917
975.492	911
976.033	893
976.573	878
977.114	900
977.654	873
978.195	903
978.735	888
979.276	930
979.816	893
980.356	864
980.897	916
981.437	935
981.977	900
982.517	911
983.057	951
983.597	868
984.137	896
984.677	904
985.216	914
985.756	906
986.296	885
986.835	881
987.375	934
987.915	879
988.454	899
988.993	928
989.533	921
990.072	879
990.611	893
991.151	904
991.69	888
992.229	896
992.768	904
993.307	874
993.846	850
994.385	864
994.924	893
995.463	874
996.001	900
996.54	909
997.079	886
997.617	905
998.156	912
998.695	903
999.233	899
999.771	896
1000.31	882
1000.848	893
1001.386	903
1001.924	929
1002.463	901
1003.001	918
1003.539	922
1004.077	930
1004.615	926
1005.153	893
1005.69	889
1006.228	908
1006.766	905
1007.304	905
1007.841	901
1008.379	922
1008.916	912
1009.454	886
1009.991	918
1010.529	890
1011.066	890
1011.603	891
1012.14	889
1012.678	869
1013.215	890
1013.752	927
1014.289	878
1014.826	907
1015.363	887
1015.9	913
1016.436	903
1016.973	941
1017.51	871
1018.046	884
1018.583	941
1019.12	882
1019.656	934
1020.193	918
1020.729	899
1021.265	920
1021.802	900
1022.338	871
1022.874	904
1023.41	900
1023.946	908
1024.482	917
1025.018	920
1025.554	878
1026.09	874
1026.626	887
1027.162	886
1027.697	886
1028.233	897
1028.769	919
1029.304	908
1029.84	929
1030.375	913
1030.911	873
1031.446	901
1031.981	907
1032.517	903
1033.052	908
1033.587	904
1034.122	893
1034.657	911
1035.192	901
1035.727	934
1036.262	907
1036.797	902
1037.332	909
1037.867	901
1038.401	917
1038.936	921
1039.47	875
1040.005	909
1040.54	911
1041.074	953
1041.608	906
1042.143	932
1042.677	921
1043.211	888
1043.745	913
1044.28	903
1044.814	940
1045.348	889
1045.882	919
1046.416	908
1046.949	916
1047.483	902
1048.017	907
1048.551	897
1049.085	902
1049.618	900
1050.152	899
1050.685	929
1051.219	920
1051.752	928
1052.286	917
1052.819	899
1053.352	914
1053.885	931
1054.418	898
1054.952	918
1055.485	929
1056.018	926
1056.551	921
1057.084	950
1057.616	927
1058.149	911
1058.682	915
1059.215	908
1059.747	917
1060.28	921
1060.812	929
1061.345	947
1061.877	943
1062.41	915
1062.942	959
1063.474	938
1064.007	902
1064.539	923
1065.071	973
1065.603	923
1066.135	970
1066.667	909
1067.199	934
1067.731	982
1068.263	931
1068.795	973
1069.326	958
1069.858	981
1070.39	982
1070.921	987
1071.453	992
1071.984	991
1072.516	984
1073.047	1067
1073.578	1036
1074.11	1099
1074.641	1104
1075.172	1071
1075.703	1132
1076.234	1146
1076.765	1133
1077.296	1244
1077.827	1274
1078.358	1306
1078.889	1350
1079.42	1443
1079.95	1481
1080.481	1575
1081.012	1551
1081.542	1637
1082.073	1690
