324.497	7784
325.099	7765
325.701	7769
326.303	7594
326.905	7552
327.507	7444
328.109	7464
328.711	7273
329.313	7562
329.915	7266
330.517	7324
331.118	7312
331.72	7168
332.321	7080
332.923	7232
333.524	7097
334.126	7347
334.727	7160
335.328	7297
335.93	7174
336.531	6998
337.132	6959
337.733	7078
338.334	7071
338.935	6841
339.536	6695
340.137	6980
340.738	6827
341.338	6697
341.939	6930
342.54	6742
343.14	6946
343.741	6656
344.341	6744
344.941	6726
345.542	6845
346.142	6663
346.742	6729
347.342	6633
347.943	6627
348.543	6509
349.143	6670
349.742	6571
350.342	6487
350.942	6468
351.542	6433
352.142	6370
352.741	6255
353.341	6410
353.94	6471
354.54	6438
355.139	6246
355.739	6350
356.338	6266
356.937	6264
357.537	6393
358.136	6418
358.735	6161
359.334	6247
359.933	6383
360.532	6263
361.131	6083
361.729	6268
362.328	6133
362.927	6131
363.526	6211
364.124	6024
364.723	6033
365.321	6075
365.92	5847
366.518	5975
367.116	6018
367.715	5980
368.313	5933
368.911	5883
369.509	5703
370.107	5941
370.705	5813
371.303	5792
371.901	5765
372.499	5777
373.096	5709
373.694	5749
374.292	5814
374.889	5744
375.487	5692
376.084	5766
376.682	5698
377.279	5748
377.876	5718
378.474	5762
379.071	5587
379.668	5682
380.265	5589
380.862	5698
381.459	5545
382.056	5661
382.653	5293
383.249	5501
383.846	5456
384.443	5378
385.04	5313
385.636	5442
386.233	5496
386.829	5348
387.425	5460
388.022	5421
388.618	5426
389.214	5390
389.811	5268
390.407	5271
391.003	5172
391.599	5101
392.195	5181
392.791	5164
393.386	5118
393.982	5006
394.578	5197
395.174	5019
395.769	5214
396.365	4923
396.96	5043
397.556	5184
398.151	5183
398.747	4986
399.342	4860
399.937	5007
400.532	4961
401.127	5090
401.723	5081
402.318	5009
402.912	4984
403.507	5005
404.102	5013
404.697	4953
405.292	5005
405.886	4974
406.481	5030
407.076	4906
407.67	4903
408.265	4860
408.859	4994
409.453	4988
410.048	4953
410.642	4887
411.236	4772
411.83	4833
412.424	4795
413.018	4851
413.612	4752
414.206	4726
414.8	5004
415.394	4873
415.987	4786
416.581	4846
417.175	4734
417.768	4770
418.362	4846
418.955	4655
419.549	4749
420.142	4565
420.735	4752
421.328	4676
421.922	4772
422.515	4591
423.108	4582
423.701	4587
424.294	4558
424.887	4577
425.479	4414
426.072	4571
426.665	4472
427.258	4442
427.85	4503
428.443	4375
429.035	4484
429.628	4456
430.22	4408
430.813	4465
431.405	4391
431.997	4368
432.589	4309
433.181	4308
433.773	4333
434.365	4324
434.957	4223
435.549	4304
436.141	4274
436.733	4276
437.325	4163
437.916	4291
438.508	4248
439.099	4200
439.691	4309
440.282	4198
440.874	4334
441.465	4171
442.056	4253
442.648	4190
443.239	4102
443.83	4199
444.421	4165
445.012	4148
445.603	4239
446.194	4244
446.785	4169
447.375	4155
447.966	4190
448.557	4195
449.147	4105
449.738	4160
450.328	4136
450.919	4102
451.509	4097
452.1	4091
452.69	4143
453.28	4052
453.87	3978
454.46	3984
455.051	4103
455.641	3962
456.23	4000
456.82	3961
457.41	4075
458	3953
458.59	3907
459.179	4162
459.769	3998
460.359	3973
460.948	3941
461.538	3978
462.127	4132
462.716	3885
463.306	3952
463.895	3965
464.484	3879
465.073	3862
465.662	3937
466.251	3880
466.84	3965
467.429	3893
468.018	3882
468.607	3933
469.195	3953
469.784	3935
470.373	3970
470.961	3986
471.55	3997
472.138	3920
472.727	3954
473.315	3909
473.903	4014
474.491	4019
475.08	3877
475.668	3807
476.256	3901
476.844	3803
477.432	3731
478.02	3814
478.608	3806
479.195	3772
479.783	3848
480.371	3780
480.958	3720
481.546	3755
482.133	3887
482.721	3752
483.308	3743
483.896	3668
484.483	3703
485.07	3605
485.657	3735
486.245	3708
486.832	3541
487.419	3598
488.006	3746
488.592	3615
489.179	3748
489.766	3633
490.353	3586
490.94	3597
491.526	3593
492.113	3475
492.699	3558
493.286	3563
493.872	3614
494.459	3472
495.045	3645
495.631	3501
496.217	3670
496.803	3664
497.389	3657
497.976	3510
498.561	3481
499.147	3456
499.733	3578
500.319	3605
500.905	3452
501.49	3471
502.076	3465
502.662	3420
503.247	3479
503.833	3547
504.418	3400
505.004	3363
505.589	3491
506.174	3483
506.759	3501
507.344	3388
507.929	3441
508.515	3413
509.1	3282
509.684	3360
510.269	3243
510.854	3487
511.439	3189
512.024	3262
512.608	3378
513.193	3415
513.777	3294
514.362	3368
514.946	3248
515.531	3287
516.115	3368
516.699	3392
517.283	3278
517.868	3230
518.452	3232
519.036	3217
519.62	3294
520.204	3312
520.788	3289
521.371	3220
521.955	3213
522.539	3272
523.122	3401
523.706	3495
524.29	3544
524.873	3842
525.457	3926
526.04	4328
526.623	4491
527.207	4696
527.79	4943
528.373	5090
528.956	5280
529.539	5529
530.122	5610
530.705	5534
531.288	5553
531.871	5342
532.454	5226
533.036	4990
533.619	4790
534.202	4593
534.784	4378
535.367	3893
535.949	3610
536.531	3288
537.114	3294
537.696	3201
538.278	3168
538.861	3077
539.443	2981
540.025	2889
540.607	2967
541.189	3072
541.771	2964
542.352	2930
542.934	2893
543.516	2973
544.098	2908
544.679	2888
545.261	2951
545.842	2859
546.424	2779
547.005	2807
547.587	2900
548.168	2828
548.749	2846
549.33	2850
549.911	2718
550.493	2876
551.074	2833
551.655	2778
552.235	2796
552.816	2810
553.397	2696
553.978	2844
554.559	2776
555.139	2827
555.72	2873
556.3	2765
556.881	2855
557.461	2744
558.042	2765
558.622	2675
559.202	2721
559.782	2794
560.362	2753
560.943	2710
561.523	2670
562.103	2700
562.683	2681
563.262	2770
563.842	2713
564.422	2765
565.002	2741
565.581	2728
566.161	2620
566.741	2716
567.32	2680
567.899	2681
568.479	2657
569.058	2644
569.637	2514
570.217	2686
570.796	2629
571.375	2624
571.954	2603
572.533	2658
573.112	2535
573.691	2563
574.27	2667
574.848	2582
575.427	2618
576.006	2652
576.584	2636
577.163	2539
577.742	2569
578.32	2516
578.898	2536
579.477	2511
580.055	2476
580.633	2466
581.211	2606
581.79	2607
582.368	2533
582.946	2604
583.524	2555
584.102	2653
584.679	2543
585.257	2460
585.835	2547
586.413	2527
586.99	2476
587.568	2533
588.145	2543
588.723	2455
589.3	2541
589.878	2538
590.455	2439
591.032	2445
591.609	2491
592.187	2522
592.764	2388
593.341	2504
593.918	2420
594.495	2456
595.072	2400
595.648	2393
596.225	2358
596.802	2457
597.378	2421
597.955	2496
598.532	2438
599.108	2380
599.685	2385
600.261	2503
600.837	2423
601.414	2461
601.99	2456
602.566	2352
603.142	2420
603.718	2484
604.294	2438
604.87	2411
605.446	2363
606.022	2383
606.598	2374
607.173	2320
607.749	2438
608.325	2380
608.9	2350
609.476	2390
610.051	2424
610.627	2420
611.202	2413
611.777	2477
612.352	2408
612.928	2385
613.503	2444
614.078	2429
614.653	2440
615.228	2390
615.803	2410
616.378	2410
616.952	2420
617.527	2368
618.102	2387
618.677	2443
619.251	2378
619.826	2430
620.4	2310
620.975	2323
621.549	2412
622.123	2411
622.698	2307
623.272	2371
623.846	2327
624.42	2376
624.994	2314
625.568	2381
626.142	2390
626.716	2407
627.29	2396
627.864	2410
628.437	2343
629.011	2310
629.585	2323
630.158	2277
630.732	2337
631.305	2390
631.878	2373
632.452	2356
633.025	2260
633.598	2346
634.172	2251
634.745	2364
635.318	2301
635.891	2307
636.464	2379
637.037	2280
637.609	2232
638.182	2254
638.755	2278
639.328	2241
639.9	2291
640.473	2255
641.045	2361
641.618	2199
642.19	2255
642.763	2253
643.335	2318
643.907	2287
644.48	2244
645.052	2275
645.624	2298
646.196	2235
646.768	2234
647.34	2188
647.912	2275
648.483	2301
649.055	2218
649.627	2221
650.199	2255
650.77	2190
651.342	2257
651.913	2215
652.485	2193
653.056	2249
653.628	2071
654.199	2189
654.77	2202
655.341	2167
655.912	2237
656.483	2263
657.054	2201
657.625	2225
658.196	2195
658.767	2260
659.338	2140
659.909	2147
660.479	2179
661.05	2182
661.621	2167
662.191	2190
662.762	2174
663.332	2192
663.902	2170
664.473	2166
665.043	2159
665.613	2152
666.183	2204
666.753	2253
667.324	2157
667.894	2100
668.463	2195
669.033	2209
669.603	2184
670.173	2137
670.743	2187
671.312	2070
671.882	2136
672.452	2130
673.021	2151
673.59	2109
674.16	2191
674.729	2181
675.299	2203
675.868	2213
676.437	2161
677.006	2161
677.575	2200
678.144	2161
678.713	2148
679.282	2117
679.851	2135
680.42	2113
680.988	2180
681.557	2109
682.126	2204
682.694	2096
683.263	2116
683.831	2126
684.4	2162
684.968	2171
685.537	2124
686.105	2120
686.673	2155
687.241	2025
687.809	2085
688.377	2108
688.945	2163
689.513	2122
690.081	2089
690.649	2158
691.217	2058
691.785	2132
692.352	2113
692.92	2187
693.487	2172
694.055	2135
694.622	2095
695.19	2164
695.757	2037
696.324	2135
696.892	2087
697.459	2091
698.026	2057
698.593	2052
699.16	2020
699.727	2115
700.294	2151
700.861	2000
701.428	2122
701.995	2083
702.561	2025
703.128	2030
703.695	2075
704.261	2084
704.828	2078
705.394	2057
705.96	2062
706.527	2063
707.093	1978
707.659	2008
708.225	2021
708.792	2067
709.358	2025
709.924	2028
710.49	2070
711.055	2008
711.621	2017
712.187	2045
712.753	2032
713.319	1982
713.884	2048
714.45	2085
715.015	1968
715.581	2006
716.146	2048
716.712	1947
717.277	1974
717.842	1973
718.407	1925
718.973	1950
719.538	1996
720.103	1966
720.668	1959
721.233	1970
721.797	1974
722.362	1872
722.927	1984
723.492	1937
724.057	1973
724.621	2012
725.186	2005
725.75	1965
726.315	1923
726.879	1894
727.443	1918
728.008	1954
728.572	1936
729.136	1919
729.7	1942
730.264	1944
730.828	1926
731.392	1900
731.956	1905
732.52	1976
733.084	2010
733.648	1955
734.211	1932
734.775	1881
735.339	1890
735.902	1962
736.466	1906
737.029	1942
737.593	1968
738.156	1892
738.719	1873
739.282	1935
739.846	1882
740.409	1914
740.972	1952
741.535	1926
742.098	1949
742.661	1846
743.224	1940
743.786	1923
744.349	1895
744.912	1908
745.474	1916
746.037	1852
746.6	1840
747.162	1855
747.724	1839
748.287	1848
748.849	1902
749.411	1831
749.974	1886
750.536	1917
751.098	1841
751.66	1908
752.222	1962
752.784	1846
753.346	1908
753.908	1853
754.469	1876
755.031	1879
755.593	1849
756.155	1823
756.716	1888
757.278	1857
757.839	1907
758.401	1873
758.962	1857
759.523	1903
760.084	1871
760.646	1836
761.207	1849
761.768	1857
762.329	1857
762.89	1812
763.451	1829
764.012	1823
764.573	1800
765.133	1862
765.694	1848
766.255	1911
766.815	1887
767.376	1829
767.936	1846
768.497	1777
769.057	1837
769.618	1860
770.178	1902
770.738	1908
771.298	1816
771.858	1855
772.419	1807
772.979	1869
773.539	1894
774.099	1868
774.658	1867
775.218	1763
775.778	1890
776.338	1861
776.897	1862
777.457	1897
778.016	1818
778.576	1838
779.135	1790
779.695	1871
780.254	1811
780.813	1846
781.373	1846
781.932	1902
782.491	1880
783.05	1856
783.609	1847
784.168	1844
784.727	1873
785.286	1880
785.845	1814
786.403	1811
786.962	1801
787.521	1825
788.079	1815
788.638	1838
789.196	1856
789.755	1866
790.313	1802
790.872	1883
791.43	1866
791.988	1873
792.546	1760
793.104	1924
793.662	1785
794.22	1842
794.778	1845
795.336	1863
795.894	1818
796.452	1836
797.01	1898
797.567	1851
798.125	1843
798.683	1854
799.24	1834
799.798	1793
800.355	1851
800.912	1877
801.47	1894
802.027	1792
802.584	1868
803.141	1832
803.699	1819
804.256	1717
804.813	1835
805.37	1836
805.926	1785
806.483	1790
807.04	1786
807.597	1814
808.153	1864
808.71	1772
809.267	1853
809.823	1780
810.38	1874
810.936	1793
811.493	1867
812.049	1816
812.605	1830
813.161	1819
813.717	1852
814.274	1865
814.83	1882
815.386	1886
815.942	1857
816.497	1809
817.053	1790
817.609	1671
818.165	1803
818.721	1811
819.276	1810
819.832	1830
820.387	1762
820.943	1791
821.498	1802
822.054	1815
822.609	1874
823.164	1891
823.719	1769
824.274	1798
824.83	1759
825.385	1789
825.94	1771
826.495	1734
827.049	1787
827.604	1804
828.159	1804
828.714	1841
829.268	1854
829.823	1764
830.378	1814
830.932	1755
831.487	1783
832.041	1764
832.595	1790
833.15	1718
833.704	1766
834.258	1893
834.812	1762
835.366	1786
835.92	1751
836.474	1806
837.028	1740
837.582	1805
838.136	1756
838.69	1703
839.244	1748
839.797	1779
840.351	1735
840.905	1748
841.458	1784
842.012	1727
842.565	1704
843.118	1748
843.672	1721
844.225	1773
844.778	1812
845.331	1770
845.884	1749
846.437	1697
846.99	1754
847.543	1776
848.096	1708
848.649	1694
849.202	1760
849.755	1831
850.307	1770
850.86	1695
851.412	1687
851.965	1738
852.517	1734
853.07	1682
853.622	1707
854.174	1722
854.727	1767
855.279	1746
855.831	1756
856.383	1699
856.935	1703
857.487	1766
858.039	1752
858.591	1721
859.143	1765
859.695	1717
860.246	1654
860.798	1682
861.35	1704
861.901	1696
862.453	1724
863.004	1718
863.556	1711
864.107	1702
864.658	1677
865.21	1670
865.761	1757
866.312	1720
866.863	1739
867.414	1714
867.965	1727
868.516	1683
869.067	1740
869.618	1624
870.169	1644
870.719	1660
871.27	1766
871.821	1685
872.371	1722
872.922	1678
873.472	1714
874.023	1706
874.573	1699
875.123	1645
875.674	1660
876.224	1733
876.774	1696
877.324	1672
877.874	1685
878.424	1663
878.974	1655
879.524	1711
880.074	1724
880.623	1733
881.173	1623
881.723	1662
882.273	1715
882.822	1623
883.372	1677
883.921	1731
884.471	1698
885.02	1704
885.569	1708
886.118	1716
886.668	1673
887.217	1678
887.766	1703
888.315	1692
888.864	1638
889.413	1640
889.962	1690
890.511	1664
891.06	1652
891.608	1705
892.157	1660
892.706	1638
893.254	1696
893.803	1650
894.351	1652
894.9	1672
895.448	1654
895.996	1636
896.545	1649
897.093	1672
897.641	1668
898.189	1703
898.737	1629
899.285	1672
899.833	1685
900.381	1627
900.929	1628
901.477	1717
902.024	1671
902.572	1629
903.12	1675
903.667	1606
904.215	1684
904.762	1684
905.31	1698
905.857	1642
906.404	1670
906.952	1699
907.499	1621
908.046	1726
908.593	1661
909.14	1696
909.687	1725
910.234	1646
910.781	1661
911.328	1780
911.875	1696
912.422	1608
912.968	1643
913.515	1635
914.062	1681
914.608	1616
915.155	1656
915.701	1659
916.247	1682
916.794	1689
917.34	1677
917.886	1613
918.432	1616
918.979	1572
919.525	1638
920.071	1748
920.617	1675
921.163	1682
921.708	1667
922.254	1679
922.8	1715
923.346	1693
923.891	1653
924.437	1646
924.983	1667
925.528	1656
926.074	1686
926.619	1646
927.164	1646
927.71	1634
928.255	1639
928.8	1651
929.345	1633
929.89	1709
930.435	1657
930.98	1661
931.525	1651
932.07	1664
932.615	1645
933.16	1641
933.704	1641
934.249	1629
934.794	1743
935.338	1646
935.883	1634
936.427	1661
936.972	1673
937.516	1636
938.06	1677
938.605	1730
939.149	1672
939.693	1631
940.237	1663
940.781	1734
941.325	1704
941.869	1633
942.413	1618
942.957	1724
943.501	1706
944.044	1654
944.588	1695
945.132	1621
945.675	1666
946.219	1729
946.762	1698
947.306	1658
947.849	1684
948.392	1739
948.936	1678
949.479	1697
950.022	1680
950.565	1684
951.108	1720
951.651	1783
952.194	1722
952.737	1739
953.28	1743
953.823	1749
954.365	1732
954.908	1720
955.451	1616
955.993	1700
956.536	1700
957.078	1785
957.621	1718
958.163	1723
958.705	1678
959.248	1691
959.79	1713
960.332	1741
960.874	1656
961.416	1627
961.958	1658
962.5	1698
963.042	1668
963.584	1687
964.126	1702
964.668	1712
965.209	1710
965.751	1678
966.293	1663
966.834	1747
967.376	1716
967.917	1717
968.459	1669
969	1758
969.541	1757
970.082	1786
970.624	1653
971.165	1676
971.706	1685
972.247	1718
972.788	1749
973.329	1681
973.87	1662
974.411	1691
974.951	1712
975.492	1720
976.033	1724
976.573	1704
977.114	1768
977.654	1764
978.195	1730
978.735	1770
979.276	1790
979.816	1805
980.356	1764
980.897	1717
981.437	1742
981.977	1723
982.517	1678
983.057	1721
983.597	1790
984.137	1716
984.677	1685
985.216	1636
985.756	1600
986.296	1626
986.835	1644
987.375	1674
987.915	1634
988.454	1580
988.993	1576
989.533	1570
990.072	1534
990.611	1603
991.151	1538
991.69	1541
992.229	1569
992.768	1568
993.307	1548
993.846	1547
994.385	1610
994.924	1563
995.463	1550
996.001	1552
996.54	1517
997.079	1532
997.617	1529
998.156	1562
998.695	1579
999.233	1591
999.771	1501
1000.31	1565
1000.848	1498
1001.386	1564
1001.924	1593
1002.463	1533
1003.001	1555
1003.539	1540
1004.077	1534
1004.615	1536
1005.153	1581
1005.69	1477
1006.228	1505
1006.766	1531
1007.304	1507
1007.841	1549
1008.379	1550
1008.916	1567
1009.454	1578
1009.991	1549
1010.529	1532
1011.066	1514
1011.603	1519
1012.14	1574
1012.678	1606
1013.215	1548
1013.752	1572
1014.289	1519
1014.826	1554
1015.363	1552
1015.9	1574
1016.436	1521
1016.973	1548
1017.51	1547
1018.046	1589
1018.583	1510
1019.12	1548
1019.656	1510
1020.193	1516
1020.729	1510
1021.265	1538
1021.802	1473
1022.338	1531
1022.874	1564
1023.41	1514
1023.946	1571
1024.482	1540
1025.018	1576
1025.554	1562
1026.09	1603
1026.626	1567
1027.162	1546
1027.697	1522
1028.233	1651
1028.769	1563
1029.304	1614
1029.84	1537
1030.375	1578
1030.911	1586
1031.446	1578
1031.981	1580
1032.517	1577
1033.052	1537
1033.587	1619
1034.122	1538
1034.657	1579
1035.192	1644
1035.727	1532
1036.262	1488
1036.797	1578
1037.332	1536
1037.867	1578
1038.401	1593
1038.936	1650
1039.47	1575
1040.005	1573
1040.54	1622
1041.074	1578
1041.608	1554
1042.143	1613
1042.677	1669
1043.211	1645
1043.745	1666
1044.28	1595
1044.814	1632
1045.348	1681
1045.882	1585
1046.416	1626
1046.949	1638
1047.483	1657
1048.017	1663
1048.551	1674
1049.085	1671
1049.618	1591
1050.152	1675
1050.685	1650
1051.219	1674
1051.752	1617
1052.286	1670
1052.819	1712
1053.352	1645
1053.885	1716
1054.418	1749
1054.952	1704
1055.485	1737
1056.018	1717
1056.551	1698
1057.084	1662
1057.616	1646
1058.149	1669
1058.682	1698
1059.215	1738
1059.747	1691
1060.28	1804
1060.812	1840
1061.345	1747
1061.877	1809
1062.41	1898
1062.942	1869
1063.474	1864
1064.007	1928
1064.539	1938
1065.071	2015
1065.603	2036
1066.135	2024
1066.667	2070
1067.199	2138
1067.731	2175
1068.263	2207
1068.795	2432
1069.326	2424
1069.858	2494
1070.39	2641
1070.921	2696
1071.453	2838
1071.984	3067
1072.516	3159
1073.047	3437
1073.578	3558
1074.11	3915
1074.641	4294
1075.172	4353
1075.703	4800
1076.234	5216
1076.765	5734
1077.296	6077
1077.827	6931
1078.358	7306
1078.889	8110
1079.42	8642
1079.95	9515
1080.481	10275
1081.012	11243
1081.542	12053
1082.073	12897
