324.497	1882
325.099	1859
325.701	1909
326.303	1887
326.905	1849
327.507	1792
328.109	1865
328.711	1804
329.313	1851
329.915	1760
330.517	1873
331.118	1774
331.72	1820
332.321	1786
332.923	1856
333.524	1745
334.126	1782
334.727	1778
335.328	1697
335.93	1773
336.531	1734
337.132	1755
337.733	1693
338.334	1778
338.935	1688
339.536	1767
340.137	1658
340.738	1720
341.338	1782
341.939	1759
342.54	1744
343.14	1744
343.741	1700
344.341	1696
344.941	1754
345.542	1723
346.142	1748
346.742	1684
347.342	1711
347.943	1750
348.543	1674
349.143	1709
349.742	1720
350.342	1666
350.942	1692
351.542	1651
352.142	1713
352.741	1624
353.341	1746
353.94	1609
354.54	1644
355.139	1650
355.739	1649
356.338	1654
356.937	1667
357.537	1665
358.136	1602
358.735	1662
359.334	1658
359.933	1636
360.532	1643
361.131	1632
361.729	1566
362.328	1653
362.927	1675
363.526	1652
364.124	1623
364.723	1653
365.321	1604
365.92	1603
366.518	1598
367.116	1569
367.715	1531
368.313	1639
368.911	1614
369.509	1506
370.107	1617
370.705	1589
371.303	1584
371.901	1605
372.499	1586
373.096	1562
373.694	1594
374.292	1533
374.889	1612
375.487	1587
376.084	1527
376.682	1572
377.279	1546
377.876	1530
378.474	1505
379.071	1545
379.668	1513
380.265	1520
380.862	1529
381.459	1456
382.056	1502
382.653	1510
383.249	1500
383.846	1558
384.443	1425
385.04	1493
385.636	1525
386.233	1552
386.829	1495
387.425	1421
388.022	1518
388.618	1473
389.214	1497
389.811	1526
390.407	1489
391.003	1461
391.599	1502
392.195	1508
392.791	1470
393.386	1475
393.982	1470
394.578	1444
395.174	1476
395.769	1458
396.365	1471
396.96	1471
397.556	1489
398.151	1487
398.747	1466
399.342	1478
399.937	1440
400.532	1491
401.127	1428
401.723	1478
402.318	1463
402.912	1480
403.507	1468
404.102	1390
404.697	1495
405.292	1404
405.886	1438
406.481	1438
407.076	1398
407.67	1483
408.265	1479
408.859	1480
409.453	1451
410.048	1407
410.642	1407
411.236	1408
411.83	1400
412.424	1401
413.018	1392
413.612	1402
414.206	1403
414.8	1410
415.394	1477
415.987	1395
416.581	1414
417.175	1429
417.768	1466
418.362	1414
418.955	1373
419.549	1348
420.142	1378
420.735	1371
421.328	1371
421.922	1391
422.515	1384
423.108	1420
423.701	1455
424.294	1361
424.887	1384
425.479	1365
426.072	1372
426.665	1433
427.258	1380
427.85	1341
428.443	1359
429.035	1338
429.628	1337
430.22	1392
430.813	1359
431.405	1365
431.997	1389
432.589	1288
433.181	1377
433.773	1338
434.365	1365
434.957	1363
435.549	1328
436.141	1294
436.733	1333
437.325	1338
437.916	1303
438.508	1333
439.099	1315
439.691	1363
440.282	1350
440.874	1329
441.465	1313
442.056	1320
442.648	1351
443.239	1311
443.83	1337
444.421	1287
445.012	1282
445.603	1342
446.194	1334
446.785	1327
447.375	1294
447.966	1299
448.557	1313
449.147	1356
449.738	1300
450.328	1323
450.919	1290
451.509	1316
452.1	1280
452.69	1305
453.28	1312
453.87	1288
454.46	1277
455.051	1327
455.641	1258
456.23	1268
456.82	1315
457.41	1282
458	1282
458.59	1312
459.179	1331
459.769	1298
460.359	1327
460.948	1345
461.538	1285
462.127	1314
462.716	1314
463.306	1247
463.895	1279
464.484	1249
465.073	1266
465.662	1280
466.251	1260
466.84	1279
467.429	1237
468.018	1348
468.607	1264
469.195	1290
469.784	1295
470.373	1278
470.961	1335
471.55	1324
472.138	1300
472.727	1285
473.315	1285
473.903	1302
474.491	1290
475.08	1255
475.668	1288
476.256	1335
476.844	1331
477.432	1242
478.02	1249
478.608	1297
479.195	1310
479.783	1300
480.371	1298
480.958	1395
481.546	1338
482.133	1309
482.721	1278
483.308	1293
483.896	1277
484.483	1290
485.07	1317
485.657	1304
486.245	1267
486.832	1322
487.419	1282
488.006	1295
488.592	1263
489.179	1290
489.766	1305
490.353	1254
490.94	1259
491.526	1203
492.113	1235
492.699	1257
493.286	1209
493.872	1214
494.459	1251
495.045	1273
495.631	1227
496.217	1192
496.803	1256
497.389	1228
497.976	1299
498.561	1193
499.147	1245
499.733	1186
500.319	1215
500.905	1208
501.49	1163
502.076	1224
502.662	1194
503.247	1216
503.833	1197
504.418	1210
505.004	1180
505.589	1206
506.174	1218
506.759	1197
507.344	1216
507.929	1228
508.515	1210
509.1	1225
509.684	1229
510.269	1181
510.854	1188
511.439	1200
512.024	1172
512.608	1232
513.193	1205
513.777	1201
514.362	1180
514.946	1182
515.531	1218
516.115	1172
516.699	1184
517.283	1162
517.868	1156
518.452	1200
519.036	1195
519.62	1139
520.204	1151
520.788	1137
521.371	1139
521.955	1176
522.539	1190
523.122	1216
523.706	1156
524.29	1199
524.873	1214
525.457	1201
526.04	1220
526.623	1252
527.207	1238
527.79	1306
528.373	1296
528.956	1318
529.539	1345
530.122	1290
530.705	1315
531.288	1327
531.871	1278
532.454	1286
533.036	1272
533.619	1291
534.202	1238
534.784	1244
535.367	1193
535.949	1208
536.531	1195
537.114	1203
537.696	1148
538.278	1152
538.861	1212
539.443	1133
540.025	1120
540.607	1146
541.189	1106
541.771	1105
542.352	1170
542.934	1105
543.516	1183
544.098	1168
544.679	1184
545.261	1146
545.842	1099
546.424	1132
547.005	1111
547.587	1095
548.168	1141
548.749	1113
549.33	1133
549.911	1117
550.493	1160
551.074	1150
551.655	1125
552.235	1147
552.816	1149
553.397	1145
553.978	1120
554.559	1151
555.139	1126
555.72	1154
556.3	1126
556.881	1161
557.461	1125
558.042	1121
558.622	1102
559.202	1098
559.782	1150
560.362	1182
560.943	1107
561.523	1128
562.103	1146
562.683	1141
563.262	1119
563.842	1122
564.422	1124
565.002	1121
565.581	1117
566.161	1082
566.741	1111
567.32	1150
567.899	1140
568.479	1126
569.058	1100
569.637	1108
570.217	1058
570.796	1109
571.375	1093
571.954	1083
572.533	1123
573.112	1119
573.691	1096
574.27	1095
574.848	1087
575.427	1088
576.006	1095
576.584	1099
577.163	1097
577.742	1096
578.32	1127
578.898	1094
579.477	1128
580.055	1069
580.633	1072
581.211	1120
581.79	1071
582.368	1093
582.946	1099
583.524	1126
584.102	1101
584.679	1111
585.257	1076
585.835	1106
586.413	1120
586.99	1087
587.568	1073
588.145	1094
588.723	1061
589.3	1107
589.878	1084
590.455	1096
591.032	1067
591.609	1088
592.187	1087
592.764	1074
593.341	1099
593.918	1118
594.495	1074
595.072	1085
595.648	1070
596.225	1066
596.802	1074
597.378	1061
597.955	1084
598.532	1056
599.108	1114
599.685	1066
600.261	1063
600.837	1102
601.414	1091
601.99	1052
602.566	1089
603.142	1062
603.718	1071
604.294	1050
604.87	1126
605.446	1074
606.022	1093
606.598	1065
607.173	1081
607.749	1055
608.325	1053
608.9	1073
609.476	1090
610.051	1076
610.627	1044
611.202	1112
611.777	1097
612.352	1112
612.928	1087
613.503	1070
614.078	1100
614.653	1041
615.228	1045
615.803	1075
616.378	1064
616.952	1094
617.527	1044
618.102	1077
618.677	1069
619.251	1057
619.826	1093
620.4	1065
620.975	1073
621.549	1069
622.123	1091
622.698	1032
623.272	1050
623.846	1058
624.42	1032
624.994	1101
625.568	1067
626.142	1049
626.716	1074
627.29	1077
627.864	1062
628.437	1046
629.011	1080
629.585	1088
630.158	1056
630.732	1102
631.305	1043
631.878	1072
632.452	1064
633.025	1043
633.598	1076
634.172	1063
634.745	1056
635.318	1041
635.891	1022
636.464	1033
637.037	1075
637.609	1094
638.182	1016
638.755	1055
639.328	1072
639.9	1054
640.473	1088
641.045	1067
641.618	1069
642.19	1057
642.763	1046
643.335	1145
643.907	1034
644.48	1024
645.052	1061
645.624	1033
646.196	1082
646.768	1092
647.34	1087
647.912	1042
648.483	1041
649.055	1017
649.627	1054
650.199	1108
650.77	1084
651.342	1045
651.913	1080
652.485	1046
653.056	1040
653.628	1046
654.199	1090
654.77	1067
655.341	1025
655.912	1009
656.483	1017
657.054	1030
657.625	1028
658.196	1031
658.767	1044
659.338	1015
659.909	1018
660.479	968
661.05	1031
661.621	1017
662.191	1032
662.762	1072
663.332	1035
663.902	1043
664.473	998
665.043	1045
665.613	1053
666.183	1050
666.753	1031
667.324	1038
667.894	1056
668.463	1035
669.033	989
669.603	1057
670.173	1046
670.743	1036
671.312	1052
671.882	1017
672.452	1045
673.021	1021
673.59	1053
674.16	1018
674.729	1026
675.299	1031
675.868	1022
676.437	1050
677.006	1030
677.575	1038
678.144	1042
678.713	1020
679.282	1027
679.851	1037
680.42	1038
680.988	1045
681.557	1031
682.126	1059
682.694	1039
683.263	1054
683.831	1043
684.4	1050
684.968	1040
685.537	988
686.105	1044
686.673	1011
687.241	1026
687.809	1002
688.377	1040
688.945	1033
689.513	1027
690.081	1034
690.649	1010
691.217	1026
691.785	1011
692.352	1004
692.92	1076
693.487	1052
694.055	999
694.622	1046
695.19	1042
695.757	1060
696.324	1079
696.892	1012
697.459	1043
698.026	997
698.593	999
699.16	1072
699.727	1025
700.294	1002
700.861	1056
701.428	1049
701.995	1006
702.561	1015
703.128	977
703.695	978
704.261	1005
704.828	1024
705.394	1004
705.96	1028
706.527	1028
707.093	1012
707.659	1015
708.225	992
708.792	1002
709.358	1039
709.924	1047
710.49	1017
711.055	1042
711.621	1006
712.187	1026
712.753	1015
713.319	1010
713.884	988
714.45	1005
715.015	1014
715.581	1013
716.146	1018
716.712	1038
717.277	1001
717.842	1014
718.407	1033
718.973	1009
719.538	1040
720.103	1004
720.668	1002
721.233	1019
721.797	1001
722.362	990
722.927	1025
723.492	1022
724.057	985
724.621	1011
725.186	976
725.75	1020
726.315	989
726.879	1014
727.443	1013
728.008	1001
728.572	996
729.136	961
729.7	987
730.264	1016
730.828	996
731.392	993
731.956	985
732.52	962
733.084	1010
733.648	1009
734.211	983
734.775	957
735.339	1037
735.902	966
736.466	983
737.029	962
737.593	1016
738.156	1004
738.719	988
739.282	1010
739.846	968
740.409	986
740.972	1009
741.535	984
742.098	992
742.661	1002
743.224	1000
743.786	978
744.349	1007
744.912	1006
745.474	980
746.037	986
746.6	973
747.162	1014
747.724	1047
748.287	947
748.849	1028
749.411	976
749.974	1008
750.536	1027
751.098	1047
751.66	977
752.222	991
752.784	988
753.346	984
753.908	987
754.469	983
755.031	989
755.593	1049
756.155	996
756.716	1012
757.278	992
757.839	1025
758.401	978
758.962	992
759.523	982
760.084	977
760.646	1023
761.207	980
761.768	1016
762.329	1005
762.89	994
763.451	996
764.012	979
764.573	991
765.133	998
765.694	1006
766.255	975
766.815	985
767.376	1016
767.936	1007
768.497	994
769.057	984
769.618	994
770.178	1013
770.738	959
771.298	984
771.858	974
772.419	989
772.979	976
773.539	982
774.099	997
774.658	994
775.218	1014
775.778	982
776.338	1010
776.897	997
777.457	965
778.016	960
778.576	968
779.135	977
779.695	970
780.254	980
780.813	969
781.373	992
781.932	994
782.491	1008
783.05	1016
783.609	1046
784.168	995
784.727	979
785.286	970
785.845	1020
786.403	987
786.962	997
787.521	1049
788.079	1004
788.638	995
789.196	1020
789.755	986
790.313	985
790.872	1006
791.43	998
791.988	988
792.546	1016
793.104	1026
793.662	1001
794.22	1017
794.778	1003
795.336	1017
795.894	1018
796.452	983
797.01	986
797.567	993
798.125	986
798.683	990
799.24	1020
799.798	1016
800.355	988
800.912	1018
801.47	967
802.027	1026
802.584	1022
803.141	990
803.699	1033
804.256	975
804.813	1004
805.37	1014
805.926	1013
806.483	972
807.04	998
807.597	969
808.153	1023
808.71	987
809.267	970
809.823	972
810.38	969
810.936	1001
811.493	971
812.049	990
812.605	1029
813.161	989
813.717	975
814.274	984
814.83	1014
815.386	985
815.942	1014
816.497	967
817.053	991
817.609	978
818.165	1012
818.721	1010
819.276	993
819.832	1022
820.387	1000
820.943	988
821.498	1034
822.054	986
822.609	976
823.164	958
823.719	964
824.274	1004
824.83	998
825.385	1001
825.94	991
826.495	965
827.049	1002
827.604	962
828.159	1028
828.714	1028
829.268	1013
829.823	977
830.378	987
830.932	1003
831.487	977
832.041	1005
832.595	1022
833.15	979
833.704	981
834.258	994
834.812	986
835.366	958
835.92	1020
836.474	965
837.028	981
837.582	1001
838.136	983
838.69	965
839.244	999
839.797	991
840.351	981
840.905	986
841.458	1015
842.012	964
842.565	945
843.118	990
843.672	989
844.225	964
844.778	959
845.331	981
845.884	983
846.437	957
846.99	1008
847.543	976
848.096	976
848.649	991
849.202	1012
849.755	977
850.307	993
850.86	964
851.412	1006
851.965	1026
852.517	966
853.07	934
853.622	970
854.174	969
854.727	972
855.279	958
855.831	1002
856.383	984
856.935	955
857.487	978
858.039	984
858.591	1009
859.143	944
859.695	974
860.246	981
860.798	964
861.35	989
861.901	978
862.453	927
863.004	954
863.556	976
864.107	927
864.658	986
865.21	937
865.761	946
866.312	954
866.863	967
867.414	963
867.965	921
868.516	946
869.067	971
869.618	971
870.169	946
870.719	922
871.27	942
871.821	947
872.371	995
872.922	951
873.472	938
874.023	966
874.573	987
875.123	937
875.674	994
876.224	974
876.774	970
877.324	949
877.874	978
878.424	953
878.974	933
879.524	953
880.074	963
880.623	986
881.173	942
881.723	975
882.273	950
882.822	947
883.372	967
883.921	950
884.471	934
885.02	961
885.569	993
886.118	934
886.668	982
887.217	976
887.766	990
888.315	966
888.864	948
889.413	959
889.962	977
890.511	963
891.06	951
891.608	967
892.157	974
892.706	927
893.254	954
893.803	946
894.351	963
894.9	963
895.448	986
895.996	951
896.545	945
897.093	961
897.641	962
898.189	975
898.737	935
899.285	993
899.833	955
900.381	965
900.929	955
901.477	991
902.024	952
902.572	982
903.12	944
903.667	960
904.215	963
904.762	948
905.31	967
905.857	973
906.404	957
906.952	957
907.499	943
908.046	955
908.593	968
909.14	967
909.687	974
910.234	944
910.781	954
911.328	950
911.875	926
912.422	982
912.968	941
913.515	953
914.062	977
914.608	993
915.155	926
915.701	977
916.247	956
916.794	950
917.34	942
917.886	959
918.432	970
918.979	991
919.525	981
920.071	952
920.617	925
921.163	947
921.708	951
922.254	923
922.8	911
923.346	962
923.891	961
924.437	973
924.983	952
925.528	960
926.074	975
926.619	935
927.164	985
927.71	948
928.255	930
928.8	952
929.345	924
929.89	970
930.435	933
930.98	953
931.525	993
932.07	919
932.615	964
933.16	964
933.704	972
934.249	950
934.794	990
935.338	947
935.883	964
936.427	977
936.972	938
937.516	963
938.06	932
938.605	934
939.149	955
939.693	928
940.237	963
940.781	963
941.325	938
941.869	980
942.413	934
942.957	940
943.501	954
944.044	967
944.588	996
945.132	958
945.675	962
946.219	947
946.762	939
947.306	978
947.849	951
948.392	965
948.936	986
949.479	988
950.022	962
950.565	936
951.108	970
951.651	954
952.194	972
952.737	935
953.28	989
953.823	946
954.365	954
954.908	954
955.451	962
955.993	998
956.536	970
957.078	958
957.621	960
958.163	984
958.705	968
959.248	986
959.79	962
960.332	982
960.874	952
961.416	949
961.958	941
962.5	955
963.042	966
963.584	977
964.126	974
964.668	943
965.209	986
965.751	965
966.293	968
966.834	981
967.376	958
967.917	960
968.459	957
969	915
969.541	991
970.082	963
970.624	957
971.165	1004
971.706	982
972.247	960
972.788	979
973.329	947
973.87	987
974.411	963
974.951	964
975.492	958
976.033	939
976.573	984
977.114	997
977.654	974
978.195	958
978.735	974
979.276	995
979.816	953
980.356	976
980.897	986
981.437	949
981.977	981
982.517	945
983.057	969
983.597	964
984.137	932
984.677	992
985.216	978
985.756	972
986.296	930
986.835	954
987.375	1002
987.915	959
988.454	940
988.993	966
989.533	968
990.072	990
990.611	956
991.151	989
991.69	967
992.229	953
992.768	960
993.307	974
993.846	975
994.385	938
994.924	969
995.463	939
996.001	984
996.54	983
997.079	944
997.617	955
998.156	980
998.695	1017
999.233	941
999.771	950
1000.31	947
1000.848	959
1001.386	947
1001.924	957
1002.463	953
1003.001	939
1003.539	950
1004.077	941
1004.615	925
1005.153	950
1005.69	939
1006.228	936
1006.766	931
1007.304	944
1007.841	950
1008.379	932
1008.916	947
1009.454	964
1009.991	921
1010.529	941
1011.066	910
1011.603	960
1012.14	956
1012.678	937
1013.215	962
1013.752	970
1014.289	957
1014.826	962
1015.363	912
1015.9	931
1016.436	974
1016.973	925
1017.51	941
1018.046	916
1018.583	942
1019.12	979
1019.656	932
1020.193	959
1020.729	930
1021.265	922
1021.802	965
1022.338	941
1022.874	960
1023.41	909
1023.946	961
1024.482	941
1025.018	925
1025.554	958
1026.09	965
1026.626	940
1027.162	977
1027.697	919
1028.233	968
1028.769	941
1029.304	963
1029.84	957
1030.375	967
1030.911	988
1031.446	926
1031.981	945
1032.517	949
1033.052	975
1033.587	967
1034.122	956
1034.657	1003
1035.192	966
1035.727	970
1036.262	947
1036.797	955
1037.332	972
1037.867	954
1038.401	917
1038.936	971
1039.47	915
1040.005	956
1040.54	958
1041.074	942
1041.608	957
1042.143	981
1042.677	969
1043.211	928
1043.745	949
1044.28	947
1044.814	929
1045.348	976
1045.882	967
1046.416	962
1046.949	942
1047.483	1020
1048.017	980
1048.551	959
1049.085	971
1049.618	989
1050.152	958
1050.685	940
1051.219	1024
1051.752	963
1052.286	957
1052.819	986
1053.352	989
1053.885	938
1054.418	972
1054.952	1007
1055.485	977
1056.018	1029
1056.551	936
1057.084	978
1057.616	1023
1058.149	1000
1058.682	1006
1059.215	969
1059.747	981
1060.28	1020
1060.812	1019
1061.345	981
1061.877	1046
1062.41	976
1062.942	1025
1063.474	1008
1064.007	1049
1064.539	1036
1065.071	1043
1065.603	1020
1066.135	1024
1066.667	1001
1067.199	983
1067.731	1053
1068.263	1035
1068.795	1060
1069.326	1087
1069.858	1111
1070.39	1091
1070.921	1140
1071.453	1086
1071.984	1208
1072.516	1166
1073.047	1205
1073.578	1219
1074.11	1334
1074.641	1360
1075.172	1382
1075.703	1492
1076.234	1458
1076.765	1608
1077.296	1638
1077.827	1744
1078.358	1800
1078.889	1933
1079.42	1966
1079.95	2096
1080.481	2303
1081.012	2445
1081.542	2519
1082.073	2629
