324.497	4667.000
325.099	4656.000
325.701	4727.000
326.303	4540.000
326.905	4473.000
327.507	4483.000
328.109	4548.000
328.711	4411.000
329.313	4424.000
329.915	4432.000
330.517	4473.000
331.118	4444.000
331.720	4404.000
332.321	4317.000
332.923	4403.000
333.524	4447.000
334.126	4282.000
334.727	4166.000
335.328	4242.000
335.930	4252.000
336.531	4255.000
337.132	4310.000
337.733	4148.000
338.334	4246.000
338.935	4129.000
339.536	4279.000
340.137	4151.000
340.738	4182.000
341.338	4081.000
341.939	4164.000
342.540	4117.000
343.140	4232.000
343.741	4232.000
344.341	4260.000
344.941	4216.000
345.542	4080.000
346.142	4226.000
346.742	4084.000
347.342	4059.000
347.943	4034.000
348.543	4041.000
349.143	3993.000
349.742	3943.000
350.342	4124.000
350.942	4098.000
351.542	3853.000
352.142	4080.000
352.741	3928.000
353.341	3948.000
353.940	3954.000
354.540	3911.000
355.139	3825.000
355.739	3966.000
356.338	3879.000
356.937	3997.000
357.537	3878.000
358.136	3876.000
358.735	3857.000
359.334	3871.000
359.933	3775.000
360.532	3883.000
361.131	3895.000
361.729	3899.000
362.328	3825.000
362.927	3818.000
363.526	3841.000
364.124	3674.000
364.723	3804.000
365.321	3762.000
365.920	3703.000
366.518	3802.000
367.116	3715.000
367.715	3672.000
368.313	3837.000
368.911	3774.000
369.509	3709.000
370.107	3702.000
370.705	3558.000
371.303	3644.000
371.901	3691.000
372.499	3708.000
373.096	3623.000
373.694	3553.000
374.292	3562.000
374.889	3589.000
375.487	3539.000
376.084	3680.000
376.682	3651.000
377.279	3643.000
377.876	3597.000
378.474	3555.000
379.071	3512.000
379.668	3702.000
380.265	3499.000
380.862	3516.000
381.459	3456.000
382.056	3460.000
382.653	3490.000
383.249	3433.000
383.846	3417.000
384.443	3437.000
385.040	3363.000
385.636	3383.000
386.233	3422.000
386.829	3472.000
387.425	3258.000
388.022	3351.000
388.618	3332.000
389.214	3285.000
389.811	3193.000
390.407	3324.000
391.003	3372.000
391.599	3321.000
392.195	3262.000
392.791	3369.000
393.386	3355.000
393.982	3323.000
394.578	3364.000
395.174	3327.000
395.769	3400.000
396.365	3363.000
396.960	3352.000
397.556	3378.000
398.151	3346.000
398.747	3226.000
399.342	3271.000
399.937	3309.000
400.532	3240.000
401.127	3142.000
401.723	3260.000
402.318	3136.000
402.912	3230.000
403.507	3231.000
404.102	3231.000
404.697	3237.000
405.292	3270.000
405.886	3254.000
406.481	3240.000
407.076	3223.000
407.670	3274.000
408.265	3166.000
408.859	3258.000
409.453	3264.000
410.048	3246.000
410.642	3200.000
411.236	3255.000
411.830	3161.000
412.424	3235.000
413.018	3338.000
413.612	3227.000
414.206	3245.000
414.800	3115.000
415.394	3240.000
415.987	3311.000
416.581	3227.000
417.175	3088.000
417.768	3203.000
418.362	3124.000
418.955	3083.000
419.549	3068.000
420.142	3065.000
420.735	3048.000
421.328	3096.000
421.922	3106.000
422.515	3026.000
423.108	3063.000
423.701	2996.000
424.294	3018.000
424.887	3033.000
425.479	3036.000
426.072	2910.000
426.665	2947.000
427.258	2939.000
427.850	3020.000
428.443	2960.000
429.035	2845.000
429.628	2852.000
430.220	2959.000
430.813	2850.000
431.405	2874.000
431.997	2820.000
432.589	2930.000
433.181	2866.000
433.773	2800.000
434.365	2839.000
434.957	2800.000
435.549	2888.000
436.141	2804.000
436.733	2789.000
437.325	2911.000
437.916	2800.000
438.508	2825.000
439.099	2720.000
439.691	2871.000
440.282	2818.000
440.874	2867.000
441.465	2751.000
442.056	2882.000
442.648	2755.000
443.239	2823.000
443.830	2838.000
444.421	2876.000
445.012	2868.000
445.603	2771.000
446.194	2807.000
446.785	2775.000
447.375	2633.000
447.966	2737.000
448.557	2702.000
449.147	2838.000
449.738	2674.000
450.328	2648.000
450.919	2734.000
451.509	2730.000
452.100	2762.000
452.690	2714.000
453.280	2686.000
453.870	2711.000
454.460	2671.000
455.051	2775.000
455.641	2706.000
456.230	2747.000
456.820	2747.000
457.410	2674.000
458.000	2758.000
458.590	2747.000
459.179	2700.000
459.769	2679.000
460.359	2647.000
460.948	2753.000
461.538	2607.000
462.127	2560.000
462.716	2650.000
463.306	2679.000
463.895	2680.000
464.484	2659.000
465.073	2658.000
465.662	2778.000
466.251	2704.000
466.840	2809.000
467.429	2740.000
468.018	2761.000
468.607	2727.000
469.195	2793.000
469.784	2696.000
470.373	2625.000
470.961	2742.000
471.550	2741.000
472.138	2632.000
472.727	2671.000
473.315	2659.000
473.903	2579.000
474.491	2668.000
475.080	2690.000
475.668	2698.000
476.256	2618.000
476.844	2597.000
477.432	2605.000
478.020	2547.000
478.608	2454.000
479.195	2564.000
479.783	2592.000
480.371	2507.000
480.958	2626.000
481.546	2520.000
482.133	2430.000
482.721	2459.000
483.308	2570.000
483.896	2520.000
484.483	2414.000
485.070	2384.000
485.657	2523.000
486.245	2521.000
486.832	2451.000
487.419	2393.000
488.006	2467.000
488.592	2411.000
489.179	2444.000
489.766	2513.000
490.353	2406.000
490.940	2484.000
491.526	2462.000
492.113	2401.000
492.699	2451.000
493.286	2401.000
493.872	2440.000
494.459	2438.000
495.045	2479.000
495.631	2504.000
496.217	2394.000
496.803	2403.000
497.389	2461.000
497.976	2403.000
498.561	2461.000
499.147	2465.000
499.733	2404.000
500.319	2330.000
500.905	2457.000
501.490	2477.000
502.076	2417.000
502.662	2388.000
503.247	2344.000
503.833	2386.000
504.418	2312.000
505.004	2328.000
505.589	2307.000
506.174	2333.000
506.759	2324.000
507.344	2339.000
507.929	2312.000
508.515	2282.000
509.100	2230.000
509.684	2305.000
510.269	2332.000
510.854	2333.000
511.439	2297.000
512.024	2388.000
512.608	2274.000
513.193	2267.000
513.777	2235.000
514.362	2269.000
514.946	2172.000
515.531	2304.000
516.115	2319.000
516.699	2282.000
517.283	2242.000
517.868	2263.000
518.452	2293.000
519.036	2247.000
519.620	2260.000
520.204	2300.000
520.788	2368.000
521.371	2469.000
521.955	2415.000
522.539	2385.000
523.122	2418.000
523.706	2571.000
524.290	2644.000
524.873	2754.000
525.457	2932.000
526.040	3294.000
526.623	3697.000
527.207	4021.000
527.790	4329.000
528.373	4485.000
528.956	4472.000
529.539	4489.000
530.122	4817.000
530.705	4546.000
531.288	4302.000
531.871	4000.000
532.454	3676.000
533.036	3299.000
533.619	2851.000
534.202	2675.000
534.784	2571.000
535.367	2435.000
535.949	2290.000
536.531	2318.000
537.114	2147.000
537.696	2205.000
538.278	2202.000
538.861	2155.000
539.443	2154.000
540.025	2090.000
540.607	2104.000
541.189	2192.000
541.771	2110.000
542.352	1946.000
542.934	2112.000
543.516	2013.000
544.098	2031.000
544.679	2057.000
545.261	1971.000
545.842	2009.000
546.424	2083.000
547.005	2025.000
547.587	2085.000
548.168	1928.000
548.749	2056.000
549.330	2012.000
549.911	2011.000
550.493	1972.000
551.074	1923.000
551.655	2039.000
552.235	2048.000
552.816	1991.000
553.397	2005.000
553.978	2035.000
554.559	2008.000
555.139	1979.000
555.720	2008.000
556.300	1945.000
556.881	1951.000
557.461	1948.000
558.042	2001.000
558.622	1969.000
559.202	2033.000
559.782	1963.000
560.362	1868.000
560.943	1922.000
561.523	1848.000
562.103	1914.000
562.683	1925.000
563.262	1886.000
563.842	1938.000
564.422	1897.000
565.002	1971.000
565.581	1945.000
566.161	1927.000
566.741	1942.000
567.320	1889.000
567.899	1912.000
568.479	1798.000
569.058	1960.000
569.637	1889.000
570.217	1867.000
570.796	1923.000
571.375	1835.000
571.954	1848.000
572.533	1907.000
573.112	1885.000
573.691	1912.000
574.270	1822.000
574.848	1840.000
575.427	1810.000
576.006	1854.000
576.584	1822.000
577.163	1866.000
577.742	1875.000
578.320	1851.000
578.898	1938.000
579.477	1861.000
580.055	1835.000
580.633	1864.000
581.211	1908.000
581.790	1843.000
582.368	1841.000
582.946	1909.000
583.524	1885.000
584.102	1927.000
584.679	1796.000
585.257	1869.000
585.835	1860.000
586.413	1814.000
586.990	1888.000
587.568	1777.000
588.145	1790.000
588.723	1792.000
589.300	1798.000
589.878	1762.000
590.455	1830.000
591.032	1831.000
591.609	1782.000
592.187	1816.000
592.764	1785.000
593.341	1767.000
593.918	1796.000
594.495	1760.000
595.072	1823.000
595.648	1784.000
596.225	1817.000
596.802	1798.000
597.378	1814.000
597.955	1783.000
598.532	1756.000
599.108	1842.000
599.685	1809.000
600.261	1728.000
600.837	1769.000
601.414	1760.000
601.990	1756.000
602.566	1791.000
603.142	1748.000
603.718	1753.000
604.294	1759.000
604.870	1770.000
605.446	1734.000
606.022	1762.000
606.598	1759.000
607.173	1768.000
607.749	1787.000
608.325	1749.000
608.900	1754.000
609.476	1723.000
610.051	1773.000
610.627	1804.000
611.202	1803.000
611.777	1758.000
612.352	1699.000
612.928	1746.000
613.503	1786.000
614.078	1794.000
614.653	1726.000
615.228	1754.000
615.803	1739.000
616.378	1832.000
616.952	1834.000
617.527	1779.000
618.102	1742.000
618.677	1694.000
619.251	1771.000
619.826	1766.000
620.400	1757.000
620.975	1753.000
621.549	1836.000
622.123	1722.000
622.698	1751.000
623.272	1740.000
623.846	1705.000
624.420	1755.000
624.994	1706.000
625.568	1780.000
626.142	1731.000
626.716	1730.000
627.290	1698.000
627.864	1713.000
628.437	1767.000
629.011	1733.000
629.585	1667.000
630.158	1742.000
630.732	1730.000
631.305	1652.000
631.878	1724.000
632.452	1671.000
633.025	1629.000
633.598	1683.000
634.172	1706.000
634.745	1699.000
635.318	1662.000
635.891	1738.000
636.464	1640.000
637.037	1698.000
637.609	1708.000
638.182	1634.000
638.755	1658.000
639.328	1710.000
639.900	1741.000
640.473	1718.000
641.045	1657.000
641.618	1681.000
642.190	1687.000
642.763	1674.000
643.335	1679.000
643.907	1695.000
644.480	1616.000
645.052	1696.000
645.624	1709.000
646.196	1682.000
646.768	1649.000
647.340	1663.000
647.912	1578.000
648.483	1646.000
649.055	1660.000
649.627	1653.000
650.199	1646.000
650.770	1647.000
651.342	1682.000
651.913	1652.000
652.485	1680.000
653.056	1617.000
653.628	1598.000
654.199	1607.000
654.770	1594.000
655.341	1649.000
655.912	1608.000
656.483	1599.000
657.054	1574.000
657.625	1648.000
658.196	1713.000
658.767	1613.000
659.338	1685.000
659.909	1582.000
660.479	1654.000
661.050	1608.000
661.621	1607.000
662.191	1586.000
662.762	1638.000
663.332	1565.000
663.902	1577.000
664.473	1656.000
665.043	1614.000
665.613	1607.000
666.183	1586.000
666.753	1631.000
667.324	1590.000
667.894	1564.000
668.463	1664.000
669.033	1612.000
669.603	1622.000
670.173	1643.000
670.743	1599.000
671.312	1641.000
671.882	1585.000
672.452	1621.000
673.021	1636.000
673.590	1591.000
674.160	1562.000
674.729	1545.000
675.299	1622.000
675.868	1605.000
676.437	1615.000
677.006	1602.000
677.575	1653.000
678.144	1629.000
678.713	1650.000
679.282	1595.000
679.851	1563.000
680.420	1523.000
680.988	1588.000
681.557	1575.000
682.126	1619.000
682.694	1587.000
683.263	1528.000
683.831	1577.000
684.400	1559.000
684.968	1608.000
685.537	1635.000
686.105	1549.000
686.673	1603.000
687.241	1581.000
687.809	1501.000
688.377	1552.000
688.945	1541.000
689.513	1587.000
690.081	1590.000
690.649	1492.000
691.217	1538.000
691.785	1562.000
692.352	1575.000
692.920	1547.000
693.487	1582.000
694.055	1545.000
694.622	1565.000
695.190	1521.000
695.757	1536.000
696.324	1504.000
696.892	1539.000
697.459	1570.000
698.026	1524.000
698.593	1531.000
699.160	1531.000
699.727	1500.000
700.294	1553.000
700.861	1514.000
701.428	1584.000
701.995	1588.000
702.561	1546.000
703.128	1589.000
703.695	1540.000
704.261	1532.000
704.828	1546.000
705.394	1519.000
705.960	1553.000
706.527	1490.000
707.093	1488.000
707.659	1539.000
708.225	1654.000
708.792	1507.000
709.358	1494.000
709.924	1478.000
710.490	1496.000
711.055	1469.000
711.621	1496.000
712.187	1508.000
712.753	1496.000
713.319	1532.000
713.884	1566.000
714.450	1531.000
715.015	1466.000
715.581	1549.000
716.146	1465.000
716.712	1521.000
717.277	1493.000
717.842	1545.000
718.407	1475.000
718.973	1488.000
719.538	1474.000
720.103	1481.000
720.668	1493.000
721.233	1469.000
721.797	1445.000
722.362	1463.000
722.927	1432.000
723.492	1541.000
724.057	1483.000
724.621	1480.000
725.186	1476.000
725.750	1394.000
726.315	1525.000
726.879	1453.000
727.443	1475.000
728.008	1444.000
728.572	1469.000
729.136	1430.000
729.700	1501.000
730.264	1480.000
730.828	1428.000
731.392	1436.000
731.956	1495.000
732.520	1429.000
733.084	1461.000
733.648	1488.000
734.211	1496.000
734.775	1415.000
735.339	1510.000
735.902	1426.000
736.466	1414.000
737.029	1500.000
737.593	1482.000
738.156	1477.000
738.719	1443.000
739.282	1486.000
739.846	1421.000
740.409	1480.000
740.972	1485.000
741.535	1439.000
742.098	1464.000
742.661	1481.000
743.224	1393.000
743.786	1467.000
744.349	1504.000
744.912	1434.000
745.474	1483.000
746.037	1409.000
746.600	1448.000
747.162	1438.000
747.724	1430.000
748.287	1415.000
748.849	1442.000
749.411	1418.000
749.974	1489.000
750.536	1407.000
751.098	1428.000
751.660	1414.000
752.222	1452.000
752.784	1420.000
753.346	1469.000
753.908	1439.000
754.469	1418.000
755.031	1456.000
755.593	1424.000
756.155	1407.000
756.716	1468.000
757.278	1406.000
757.839	1453.000
758.401	1427.000
758.962	1381.000
759.523	1391.000
760.084	1427.000
760.646	1441.000
761.207	1422.000
761.768	1484.000
762.329	1417.000
762.890	1463.000
763.451	1446.000
764.012	1376.000
764.573	1410.000
765.133	1428.000
765.694	1390.000
766.255	1425.000
766.815	1442.000
767.376	1429.000
767.936	1404.000
768.497	1410.000
769.057	1397.000
769.618	1425.000
770.178	1435.000
770.738	1397.000
771.298	1365.000
771.858	1414.000
772.419	1437.000
772.979	1404.000
773.539	1385.000
774.099	1420.000
774.658	1408.000
775.218	1443.000
775.778	1459.000
776.338	1412.000
776.897	1428.000
777.457	1431.000
778.016	1408.000
778.576	1422.000
779.135	1448.000
779.695	1401.000
780.254	1433.000
780.813	1433.000
781.373	1422.000
781.932	1443.000
782.491	1404.000
783.050	1409.000
783.609	1395.000
784.168	1423.000
784.727	1350.000
785.286	1431.000
785.845	1430.000
786.403	1441.000
786.962	1375.000
787.521	1402.000
788.079	1475.000
788.638	1412.000
789.196	1453.000
789.755	1498.000
790.313	1403.000
790.872	1435.000
791.430	1432.000
791.988	1450.000
792.546	1374.000
793.104	1447.000
793.662	1407.000
794.220	1443.000
794.778	1408.000
795.336	1435.000
795.894	1428.000
796.452	1445.000
797.010	1410.000
797.567	1426.000
798.125	1447.000
798.683	1434.000
799.240	1419.000
799.798	1436.000
800.355	1394.000
800.912	1367.000
801.470	1377.000
802.027	1405.000
802.584	1455.000
803.141	1432.000
803.699	1406.000
804.256	1371.000
804.813	1428.000
805.370	1406.000
805.926	1452.000
806.483	1408.000
807.040	1420.000
807.597	1409.000
808.153	1445.000
808.710	1442.000
809.267	1409.000
809.823	1369.000
810.380	1427.000
810.936	1444.000
811.493	1407.000
812.049	1382.000
812.605	1361.000
813.161	1413.000
813.717	1385.000
814.274	1427.000
814.830	1398.000
815.386	1380.000
815.942	1400.000
816.497	1408.000
817.053	1397.000
817.609	1373.000
818.165	1396.000
818.721	1405.000
819.276	1419.000
819.832	1438.000
820.387	1406.000
820.943	1418.000
821.498	1444.000
822.054	1434.000
822.609	1418.000
823.164	1334.000
823.719	1339.000
824.274	1405.000
824.830	1405.000
825.385	1332.000
825.940	1429.000
826.495	1392.000
827.049	1402.000
827.604	1400.000
828.159	1400.000
828.714	1419.000
829.268	1407.000
829.823	1384.000
830.378	1396.000
830.932	1394.000
831.487	1383.000
832.041	1390.000
832.595	1390.000
833.150	1419.000
833.704	1368.000
834.258	1367.000
834.812	1392.000
835.366	1372.000
835.920	1408.000
836.474	1389.000
837.028	1385.000
837.582	1399.000
838.136	1373.000
838.690	1349.000
839.244	1432.000
839.797	1386.000
840.351	1386.000
840.905	1340.000
841.458	1329.000
842.012	1426.000
842.565	1392.000
843.118	1353.000
843.672	1419.000
844.225	1395.000
844.778	1366.000
845.331	1378.000
845.884	1341.000
846.437	1381.000
846.990	1362.000
847.543	1313.000
848.096	1345.000
848.649	1349.000
849.202	1385.000
849.755	1360.000
850.307	1322.000
850.860	1355.000
851.412	1373.000
851.965	1361.000
852.517	1345.000
853.070	1342.000
853.622	1294.000
854.174	1361.000
854.727	1317.000
855.279	1372.000
855.831	1372.000
856.383	1319.000
856.935	1351.000
857.487	1337.000
858.039	1364.000
858.591	1367.000
859.143	1393.000
859.695	1335.000
860.246	1357.000
860.798	1358.000
861.350	1364.000
861.901	1290.000
862.453	1340.000
863.004	1344.000
863.556	1331.000
864.107	1337.000
864.658	1350.000
865.210	1374.000
865.761	1360.000
866.312	1319.000
866.863	1375.000
867.414	1271.000
867.965	1375.000
868.516	1358.000
869.067	1330.000
869.618	1378.000
870.169	1316.000
870.719	1299.000
871.270	1309.000
871.821	1338.000
872.371	1405.000
872.922	1365.000
873.472	1326.000
874.023	1320.000
874.573	1306.000
875.123	1296.000
875.674	1334.000
876.224	1330.000
876.774	1304.000
877.324	1356.000
877.874	1327.000
878.424	1287.000
878.974	1326.000
879.524	1342.000
880.074	1324.000
880.623	1367.000
881.173	1340.000
881.723	1337.000
882.273	1304.000
882.822	1316.000
883.372	1302.000
883.921	1339.000
884.471	1310.000
885.020	1258.000
885.569	1307.000
886.118	1293.000
886.668	1380.000
887.217	1344.000
887.766	1307.000
888.315	1310.000
888.864	1315.000
889.413	1347.000
889.962	1336.000
890.511	1324.000
891.060	1340.000
891.608	1312.000
892.157	1266.000
892.706	1310.000
893.254	1302.000
893.803	1272.000
894.351	1306.000
894.900	1309.000
895.448	1385.000
895.996	1304.000
896.545	1285.000
897.093	1280.000
897.641	1278.000
898.189	1382.000
898.737	1317.000
899.285	1352.000
899.833	1358.000
900.381	1330.000
900.929	1321.000
901.477	1332.000
902.024	1275.000
902.572	1328.000
903.120	1314.000
903.667	1369.000
904.215	1296.000
904.762	1303.000
905.310	1307.000
905.857	1304.000
906.404	1365.000
906.952	1330.000
907.499	1294.000
908.046	1267.000
908.593	1292.000
909.140	1329.000
909.687	1293.000
910.234	1286.000
910.781	1332.000
911.328	1314.000
911.875	1364.000
912.422	1329.000
912.968	1332.000
913.515	1335.000
914.062	1295.000
914.608	1315.000
915.155	1372.000
915.701	1323.000
916.247	1299.000
916.794	1334.000
917.340	1325.000
917.886	1327.000
918.432	1310.000
918.979	1320.000
919.525	1266.000
920.071	1300.000
920.617	1334.000
921.163	1321.000
921.708	1266.000
922.254	1280.000
922.800	1306.000
923.346	1304.000
923.891	1331.000
924.437	1271.000
924.983	1277.000
925.528	1285.000
926.074	1362.000
926.619	1349.000
927.164	1284.000
927.710	1343.000
928.255	1292.000
928.800	1297.000
929.345	1276.000
929.890	1300.000
930.435	1307.000
930.980	1283.000
931.525	1289.000
932.070	1273.000
932.615	1284.000
933.160	1284.000
933.704	1308.000
934.249	1331.000
934.794	1289.000
935.338	1305.000
935.883	1346.000
936.427	1311.000
936.972	1266.000
937.516	1288.000
938.060	1318.000
938.605	1308.000
939.149	1321.000
939.693	1320.000
940.237	1282.000
940.781	1376.000
941.325	1380.000
941.869	1285.000
942.413	1287.000
942.957	1334.000
943.501	1333.000
944.044	1342.000
944.588	1337.000
945.132	1323.000
945.675	1333.000
946.219	1329.000
946.762	1308.000
947.306	1346.000
947.849	1312.000
948.392	1324.000
948.936	1319.000
949.479	1372.000
950.022	1340.000
950.565	1348.000
951.108	1356.000
951.651	1336.000
952.194	1358.000
952.737	1369.000
953.280	1326.000
953.823	1308.000
954.365	1348.000
954.908	1307.000
955.451	1315.000
955.993	1384.000
956.536	1340.000
957.078	1373.000
957.621	1279.000
958.163	1294.000
958.705	1335.000
959.248	1392.000
959.790	1332.000
960.332	1341.000
960.874	1338.000
961.416	1289.000
961.958	1308.000
962.500	1371.000
963.042	1353.000
963.584	1347.000
964.126	1331.000
964.668	1344.000
965.209	1255.000
965.751	1336.000
966.293	1329.000
966.834	1329.000
967.376	1335.000
967.917	1314.000
968.459	1341.000
969.000	1334.000
969.541	1337.000
970.082	1317.000
970.624	1317.000
971.165	1349.000
971.706	1321.000
972.247	1325.000
972.788	1381.000
973.329	1333.000
973.870	1330.000
974.411	1273.000
974.951	1316.000
975.492	1383.000
976.033	1341.000
976.573	1320.000
977.114	1368.000
977.654	1366.000
978.195	1387.000
978.735	1350.000
979.276	1344.000
979.816	1374.000
980.356	1368.000
980.897	1354.000
981.437	1309.000
981.977	1319.000
982.517	1351.000
983.057	1317.000
983.597	1337.000
984.137	1299.000
984.677	1344.000
985.216	1326.000
985.756	1297.000
986.296	1325.000
986.835	1328.000
987.375	1292.000
987.915	1289.000
988.454	1299.000
988.993	1306.000
989.533	1317.000
990.072	1273.000
990.611	1288.000
991.151	1266.000
991.690	1284.000
992.229	1272.000
992.768	1278.000
993.307	1264.000
993.846	1249.000
994.385	1241.000
994.924	1247.000
995.463	1236.000
996.001	1252.000
996.540	1245.000
997.079	1269.000
997.617	1282.000
998.156	1307.000
998.695	1231.000
999.233	1250.000
999.771	1245.000
1000.310	1210.000
1000.848	1261.000
1001.386	1268.000
1001.924	1264.000
1002.463	1225.000
1003.001	1230.000
1003.539	1238.000
1004.077	1226.000
1004.615	1231.000
1005.153	1291.000
1005.690	1266.000
1006.228	1194.000
1006.766	1227.000
1007.304	1234.000
1007.841	1221.000
1008.379	1241.000
1008.916	1212.000
1009.454	1247.000
1009.991	1203.000
1010.529	1227.000
1011.066	1245.000
1011.603	1186.000
1012.140	1232.000
1012.678	1204.000
1013.215	1209.000
1013.752	1198.000
1014.289	1189.000
1014.826	1225.000
1015.363	1203.000
1015.900	1229.000
1016.436	1202.000
1016.973	1183.000
1017.510	1187.000
1018.046	1272.000
1018.583	1184.000
1019.120	1210.000
1019.656	1181.000
1020.193	1256.000
1020.729	1225.000
1021.265	1199.000
1021.802	1222.000
1022.338	1217.000
1022.874	1198.000
1023.410	1247.000
1023.946	1224.000
1024.482	1244.000
1025.018	1219.000
1025.554	1220.000
1026.090	1221.000
1026.626	1253.000
1027.162	1221.000
1027.697	1185.000
1028.233	1239.000
1028.769	1204.000
1029.304	1183.000
1029.840	1195.000
1030.375	1241.000
1030.911	1185.000
1031.446	1214.000
1031.981	1192.000
1032.517	1144.000
1033.052	1251.000
1033.587	1203.000
1034.122	1219.000
1034.657	1247.000
1035.192	1233.000
1035.727	1225.000
1036.262	1154.000
1036.797	1236.000
1037.332	1231.000
1037.867	1225.000
1038.401	1202.000
1038.936	1190.000
1039.470	1220.000
1040.005	1194.000
1040.540	1189.000
1041.074	1212.000
1041.608	1261.000
1042.143	1185.000
1042.677	1266.000
1043.211	1229.000
1043.745	1223.000
1044.280	1182.000
1044.814	1208.000
1045.348	1292.000
1045.882	1219.000
1046.416	1233.000
1046.949	1270.000
1047.483	1248.000
1048.017	1238.000
1048.551	1193.000
1049.085	1196.000
1049.618	1236.000
1050.152	1233.000
1050.685	1213.000
1051.219	1260.000
1051.752	1291.000
1052.286	1249.000
1052.819	1250.000
1053.352	1254.000
1053.885	1272.000
1054.418	1228.000
1054.952	1289.000
1055.485	1277.000
1056.018	1240.000
1056.551	1230.000
1057.084	1248.000
1057.616	1289.000
1058.149	1267.000
1058.682	1230.000
1059.215	1253.000
1059.747	1306.000
1060.280	1269.000
1060.812	1347.000
1061.345	1276.000
1061.877	1313.000
1062.410	1327.000
1062.942	1308.000
1063.474	1300.000
1064.007	1287.000
1064.539	1363.000
1065.071	1354.000
1065.603	1347.000
1066.135	1343.000
1066.667	1360.000
1067.199	1360.000
1067.731	1443.000
1068.263	1407.000
1068.795	1457.000
1069.326	1493.000
1069.858	1547.000
1070.390	1538.000
1070.921	1567.000
1071.453	1694.000
1071.984	1712.000
1072.516	1774.000
1073.047	1795.000
1073.578	1888.000
1074.110	1995.000
1074.641	2040.000
1075.172	2174.000
1075.703	2286.000
1076.234	2446.000
1076.765	2562.000
1077.296	2732.000
1077.827	2983.000
1078.358	3091.000
1078.889	3209.000
1079.420	3505.000
1079.950	3659.000
1080.481	3907.000
1081.012	4299.000
1081.542	4442.000
1082.073	4774.000

