324.497	2237
325.099	2318
325.701	2282
326.303	2204
326.905	2274
327.507	2225
328.109	2270
328.711	2299
329.313	2319
329.915	2198
330.517	2180
331.118	2256
331.72	2222
332.321	2214
332.923	2176
333.524	2204
334.126	2226
334.727	2164
335.328	2232
335.93	2168
336.531	2196
337.132	2167
337.733	2156
338.334	2153
338.935	2095
339.536	2026
340.137	2136
340.738	2090
341.338	2089
341.939	2095
342.54	2050
343.14	2093
343.741	2127
344.341	1993
344.941	2169
345.542	2078
346.142	2058
346.742	2203
347.342	2112
347.943	2083
348.543	1967
349.143	1915
349.742	1997
350.342	2050
350.942	2053
351.542	2026
352.142	2055
352.741	2009
353.341	1960
353.94	2035
354.54	1969
355.139	1978
355.739	2048
356.338	1983
356.937	2040
357.537	1999
358.136	1992
358.735	2000
359.334	1987
359.933	1982
360.532	1995
361.131	1911
361.729	2017
362.328	2006
362.927	1951
363.526	2053
364.124	2033
364.723	1918
365.321	1911
365.92	1884
366.518	1893
367.116	1920
367.715	1930
368.313	1897
368.911	1908
369.509	1968
370.107	1898
370.705	1893
371.303	1842
371.901	1976
372.499	1884
373.096	1861
373.694	1889
374.292	1892
374.889	1960
375.487	1933
376.084	1847
376.682	1882
377.279	1883
377.876	1790
378.474	1865
379.071	1870
379.668	1885
380.265	1880
380.862	1831
381.459	1871
382.056	1881
382.653	1832
383.249	1839
383.846	1833
384.443	1825
385.04	1828
385.636	1825
386.233	1797
386.829	1835
387.425	1803
388.022	1817
388.618	1708
389.214	1776
389.811	1796
390.407	1756
391.003	1736
391.599	1764
392.195	1703
392.791	1774
393.386	1791
393.982	1747
394.578	1778
395.174	1770
395.769	1740
396.365	1732
396.96	1751
397.556	1744
398.151	1717
398.747	1743
399.342	1793
399.937	1749
400.532	1725
401.127	1681
401.723	1787
402.318	1792
402.912	1806
403.507	1742
404.102	1788
404.697	1753
405.292	1685
405.886	1766
406.481	1658
407.076	1801
407.67	1726
408.265	1749
408.859	1724
409.453	1711
410.048	1716
410.642	1713
411.236	1713
411.83	1678
412.424	1630
413.018	1734
413.612	1760
414.206	1731
414.8	1684
415.394	1672
415.987	1707
416.581	1721
417.175	1703
417.768	1783
418.362	1633
418.955	1678
419.549	1616
420.142	1719
420.735	1649
421.328	1673
421.922	1627
422.515	1684
423.108	1686
423.701	1658
424.294	1615
424.887	1630
425.479	1598
426.072	1623
426.665	1645
427.258	1601
427.85	1588
428.443	1629
429.035	1639
429.628	1596
430.22	1576
430.813	1579
431.405	1601
431.997	1565
432.589	1532
433.181	1609
433.773	1560
434.365	1611
434.957	1624
435.549	1617
436.141	1592
436.733	1560
437.325	1545
437.916	1558
438.508	1533
439.099	1580
439.691	1546
440.282	1548
440.874	1632
441.465	1560
442.056	1542
442.648	1525
443.239	1627
443.83	1518
444.421	1598
445.012	1552
445.603	1566
446.194	1535
446.785	1536
447.375	1564
447.966	1556
448.557	1546
449.147	1556
449.738	1604
450.328	1524
450.919	1465
451.509	1577
452.1	1541
452.69	1569
453.28	1465
453.87	1538
454.46	1579
455.051	1510
455.641	1514
456.23	1531
456.82	1557
457.41	1477
458	1513
458.59	1528
459.179	1510
459.769	1496
460.359	1538
460.948	1514
461.538	1484
462.127	1525
462.716	1540
463.306	1481
463.895	1507
464.484	1531
465.073	1516
465.662	1544
466.251	1470
466.84	1502
467.429	1491
468.018	1520
468.607	1500
469.195	1500
469.784	1549
470.373	1551
470.961	1505
471.55	1411
472.138	1507
472.727	1520
473.315	1522
473.903	1538
474.491	1483
475.08	1479
475.668	1476
476.256	1525
476.844	1484
477.432	1500
478.02	1455
478.608	1471
479.195	1442
479.783	1438
480.371	1478
480.958	1490
481.546	1459
482.133	1469
482.721	1414
483.308	1474
483.896	1471
484.483	1438
485.07	1430
485.657	1404
486.245	1449
486.832	1394
487.419	1450
488.006	1452
488.592	1360
489.179	1488
489.766	1427
490.353	1438
490.94	1433
491.526	1433
492.113	1427
492.699	1424
493.286	1437
493.872	1394
494.459	1414
495.045	1344
495.631	1421
496.217	1364
496.803	1430
497.389	1435
497.976	1474
498.561	1414
499.147	1449
499.733	1407
500.319	1367
500.905	1367
501.49	1361
502.076	1397
502.662	1364
503.247	1423
503.833	1383
504.418	1393
505.004	1384
505.589	1404
506.174	1291
506.759	1354
507.344	1364
507.929	1385
508.515	1345
509.1	1420
509.684	1326
510.269	1351
510.854	1386
511.439	1329
512.024	1318
512.608	1374
513.193	1342
513.777	1342
514.362	1333
514.946	1380
515.531	1344
516.115	1347
516.699	1291
517.283	1335
517.868	1312
518.452	1290
519.036	1335
519.62	1291
520.204	1292
520.788	1322
521.371	1325
521.955	1304
522.539	1332
523.122	1295
523.706	1362
524.29	1322
524.873	1297
525.457	1340
526.04	1362
526.623	1249
527.207	1319
527.79	1320
528.373	1275
528.956	1341
529.539	1306
530.122	1354
530.705	1312
531.288	1341
531.871	1324
532.454	1341
533.036	1321
533.619	1340
534.202	1307
534.784	1293
535.367	1266
535.949	1288
536.531	1281
537.114	1274
537.696	1279
538.278	1294
538.861	1253
539.443	1233
540.025	1279
540.607	1304
541.189	1255
541.771	1268
542.352	1222
542.934	1271
543.516	1219
544.098	1236
544.679	1279
545.261	1222
545.842	1267
546.424	1266
547.005	1235
547.587	1273
548.168	1236
548.749	1199
549.33	1247
549.911	1220
550.493	1283
551.074	1250
551.655	1278
552.235	1303
552.816	1251
553.397	1216
553.978	1222
554.559	1214
555.139	1212
555.72	1290
556.3	1222
556.881	1294
557.461	1238
558.042	1234
558.622	1264
559.202	1234
559.782	1222
560.362	1230
560.943	1218
561.523	1194
562.103	1291
562.683	1224
563.262	1231
563.842	1225
564.422	1213
565.002	1199
565.581	1196
566.161	1174
566.741	1192
567.32	1205
567.899	1232
568.479	1203
569.058	1211
569.637	1205
570.217	1273
570.796	1193
571.375	1211
571.954	1220
572.533	1166
573.112	1240
573.691	1212
574.27	1220
574.848	1171
575.427	1171
576.006	1136
576.584	1168
577.163	1195
577.742	1202
578.32	1179
578.898	1180
579.477	1208
580.055	1171
580.633	1204
581.211	1187
581.79	1223
582.368	1210
582.946	1218
583.524	1207
584.102	1155
584.679	1196
585.257	1192
585.835	1190
586.413	1187
586.99	1162
587.568	1150
588.145	1191
588.723	1175
589.3	1185
589.878	1213
590.455	1164
591.032	1127
591.609	1207
592.187	1187
592.764	1197
593.341	1207
593.918	1162
594.495	1170
595.072	1171
595.648	1162
596.225	1165
596.802	1207
597.378	1203
597.955	1163
598.532	1148
599.108	1206
599.685	1145
600.261	1149
600.837	1183
601.414	1137
601.99	1133
602.566	1128
603.142	1182
603.718	1201
604.294	1122
604.87	1181
605.446	1166
606.022	1200
606.598	1206
607.173	1148
607.749	1154
608.325	1173
608.9	1206
609.476	1174
610.051	1200
610.627	1177
611.202	1145
611.777	1161
612.352	1177
612.928	1147
613.503	1105
614.078	1148
614.653	1119
615.228	1150
615.803	1172
616.378	1172
616.952	1173
617.527	1137
618.102	1155
618.677	1118
619.251	1077
619.826	1186
620.4	1163
620.975	1190
621.549	1198
622.123	1169
622.698	1136
623.272	1181
623.846	1175
624.42	1162
624.994	1142
625.568	1196
626.142	1120
626.716	1173
627.29	1179
627.864	1106
628.437	1175
629.011	1119
629.585	1105
630.158	1157
630.732	1145
631.305	1121
631.878	1133
632.452	1135
633.025	1175
633.598	1139
634.172	1192
634.745	1130
635.318	1169
635.891	1112
636.464	1104
637.037	1146
637.609	1144
638.182	1127
638.755	1129
639.328	1122
639.9	1096
640.473	1133
641.045	1128
641.618	1166
642.19	1189
642.763	1109
643.335	1113
643.907	1128
644.48	1125
645.052	1128
645.624	1133
646.196	1139
646.768	1153
647.34	1135
647.912	1132
648.483	1164
649.055	1141
649.627	1167
650.199	1128
650.77	1138
651.342	1146
651.913	1100
652.485	1143
653.056	1139
653.628	1107
654.199	1092
654.77	1130
655.341	1126
655.912	1130
656.483	1142
657.054	1094
657.625	1098
658.196	1145
658.767	1112
659.338	1126
659.909	1097
660.479	1096
661.05	1101
661.621	1151
662.191	1070
662.762	1128
663.332	1095
663.902	1089
664.473	1058
665.043	1113
665.613	1170
666.183	1141
666.753	1128
667.324	1094
667.894	1124
668.463	1105
669.033	1086
669.603	1102
670.173	1103
670.743	1122
671.312	1154
671.882	1116
672.452	1055
673.021	1067
673.59	1160
674.16	1120
674.729	1141
675.299	1111
675.868	1096
676.437	1147
677.006	1095
677.575	1113
678.144	1056
678.713	1126
679.282	1073
679.851	1096
680.42	1091
680.988	1103
681.557	1092
682.126	1107
682.694	1082
683.263	1124
683.831	1084
684.4	1119
684.968	1120
685.537	1062
686.105	1076
686.673	1082
687.241	1109
687.809	1079
688.377	1107
688.945	1099
689.513	1128
690.081	1097
690.649	1112
691.217	1089
691.785	1066
692.352	1114
692.92	1058
693.487	1133
694.055	1096
694.622	1111
695.19	1114
695.757	1094
696.324	1094
696.892	1100
697.459	1110
698.026	1083
698.593	1046
699.16	1114
699.727	1062
700.294	1130
700.861	1114
701.428	1110
701.995	1053
702.561	1110
703.128	1052
703.695	1077
704.261	1147
704.828	1109
705.394	1072
705.96	1078
706.527	1096
707.093	1122
707.659	1093
708.225	1084
708.792	1059
709.358	1109
709.924	1094
710.49	1014
711.055	1079
711.621	1107
712.187	1055
712.753	1083
713.319	1026
713.884	1067
714.45	1048
715.015	1059
715.581	1076
716.146	1071
716.712	1080
717.277	1045
717.842	1102
718.407	1062
718.973	1057
719.538	1073
720.103	1078
720.668	1084
721.233	1006
721.797	1067
722.362	1048
722.927	1037
723.492	1073
724.057	1069
724.621	1065
725.186	1039
725.75	1078
726.315	1089
726.879	1052
727.443	1061
728.008	1047
728.572	1082
729.136	1117
729.7	1080
730.264	1078
730.828	1112
731.392	1061
731.956	1074
732.52	1093
733.084	1079
733.648	1043
734.211	1056
734.775	1092
735.339	1137
735.902	1043
736.466	1099
737.029	1042
737.593	1066
738.156	1138
738.719	1035
739.282	1086
739.846	1068
740.409	1027
740.972	1039
741.535	1063
742.098	1068
742.661	1092
743.224	1078
743.786	1046
744.349	1073
744.912	1051
745.474	1083
746.037	1048
746.6	1041
747.162	1025
747.724	1048
748.287	1036
748.849	1069
749.411	1063
749.974	1056
750.536	1032
751.098	1046
751.66	1026
752.222	1041
752.784	1102
753.346	1045
753.908	1052
754.469	1102
755.031	1033
755.593	1028
756.155	1059
756.716	1049
757.278	1034
757.839	1030
758.401	1054
758.962	1057
759.523	1083
760.084	1054
760.646	1062
761.207	1089
761.768	1012
762.329	1047
762.89	1053
763.451	1009
764.012	1055
764.573	1068
765.133	1050
765.694	1027
766.255	1015
766.815	1066
767.376	1067
767.936	1061
768.497	1058
769.057	1075
769.618	1040
770.178	1020
770.738	1064
771.298	1012
771.858	1040
772.419	1062
772.979	1058
773.539	1037
774.099	1065
774.658	1030
775.218	1065
775.778	1048
776.338	1058
776.897	1036
777.457	1064
778.016	1012
778.576	1059
779.135	1025
779.695	1041
780.254	1040
780.813	1069
781.373	1037
781.932	1074
782.491	1020
783.05	1026
783.609	1053
784.168	1011
784.727	1009
785.286	1024
785.845	1084
786.403	1070
786.962	1026
787.521	1019
788.079	1058
788.638	1032
789.196	1070
789.755	1098
790.313	1055
790.872	1082
791.43	1064
791.988	1057
792.546	1077
793.104	1047
793.662	1068
794.22	1111
794.778	1053
795.336	1062
795.894	1018
796.452	1047
797.01	1029
797.567	1083
798.125	1057
798.683	1056
799.24	1083
799.798	1073
800.355	1094
800.912	1063
801.47	1056
802.027	1062
802.584	1033
803.141	1032
803.699	1038
804.256	1048
804.813	1062
805.37	1048
805.926	1069
806.483	1008
807.04	1074
807.597	1051
808.153	1044
808.71	1032
809.267	1067
809.823	1030
810.38	1061
810.936	1028
811.493	1076
812.049	1063
812.605	1037
813.161	1082
813.717	1086
814.274	1075
814.83	1066
815.386	1087
815.942	1053
816.497	1026
817.053	1051
817.609	1023
818.165	1035
818.721	1036
819.276	1009
819.832	1045
820.387	1066
820.943	1067
821.498	1056
822.054	1043
822.609	1043
823.164	1070
823.719	1010
824.274	1049
824.83	1057
825.385	1036
825.94	1050
826.495	1030
827.049	1045
827.604	1055
828.159	1058
828.714	1066
829.268	1004
829.823	1036
830.378	1039
830.932	1046
831.487	1066
832.041	1049
832.595	1059
833.15	1034
833.704	1025
834.258	1053
834.812	1067
835.366	1068
835.92	1044
836.474	1079
837.028	1035
837.582	1032
838.136	1042
838.69	1023
839.244	1031
839.797	1042
840.351	1030
840.905	1050
841.458	1038
842.012	996
842.565	1065
843.118	1028
843.672	1015
844.225	1054
844.778	1039
845.331	1076
845.884	1008
846.437	1050
846.99	1047
847.543	1018
848.096	1042
848.649	1042
849.202	1065
849.755	1010
850.307	1027
850.86	1022
851.412	1018
851.965	1054
852.517	1062
853.07	1026
853.622	1063
854.174	1058
854.727	1006
855.279	1014
855.831	1012
856.383	1040
856.935	1028
857.487	1053
858.039	1009
858.591	1055
859.143	1040
859.695	1045
860.246	1013
860.798	1058
861.35	1017
861.901	1012
862.453	999
863.004	994
863.556	1013
864.107	1013
864.658	1026
865.21	1025
865.761	1017
866.312	1006
866.863	1007
867.414	1034
867.965	1008
868.516	1033
869.067	992
869.618	1017
870.169	1018
870.719	1026
871.27	1031
871.821	1014
872.371	1022
872.922	1022
873.472	997
874.023	1033
874.573	973
875.123	1050
875.674	1000
876.224	1026
876.774	1031
877.324	1006
877.874	1008
878.424	1028
878.974	1007
879.524	997
880.074	999
880.623	980
881.173	1000
881.723	1004
882.273	1009
882.822	972
883.372	1018
883.921	1016
884.471	990
885.02	987
885.569	1017
886.118	1048
886.668	1018
887.217	1001
887.766	1050
888.315	996
888.864	1007
889.413	1037
889.962	989
890.511	1060
891.06	988
891.608	1031
892.157	1048
892.706	998
893.254	1020
893.803	1010
894.351	1002
894.9	1004
895.448	983
895.996	1007
896.545	1032
897.093	1010
897.641	979
898.189	995
898.737	994
899.285	991
899.833	1027
900.381	1024
900.929	1017
901.477	1018
902.024	1008
902.572	1018
903.12	1030
903.667	1016
904.215	1015
904.762	1023
905.31	1013
905.857	1018
906.404	1020
906.952	1047
907.499	1042
908.046	1012
908.593	984
909.14	1005
909.687	983
910.234	1047
910.781	961
911.328	1029
911.875	1014
912.422	1026
912.968	995
913.515	1003
914.062	1005
914.608	1022
915.155	994
915.701	1028
916.247	995
916.794	1010
917.34	1014
917.886	1018
918.432	972
918.979	993
919.525	1003
920.071	1004
920.617	1010
921.163	1026
921.708	992
922.254	1011
922.8	1019
923.346	994
923.891	1018
924.437	990
924.983	985
925.528	998
926.074	1026
926.619	1034
927.164	1009
927.71	982
928.255	1006
928.8	993
929.345	1001
929.89	1015
930.435	981
930.98	975
931.525	1037
932.07	1014
932.615	1029
933.16	1072
933.704	1015
934.249	1054
934.794	978
935.338	1010
935.883	985
936.427	1009
936.972	996
937.516	985
938.06	1008
938.605	1014
939.149	986
939.693	986
940.237	1025
940.781	990
941.325	1030
941.869	1006
942.413	1046
942.957	1053
943.501	1028
944.044	1035
944.588	1002
945.132	1007
945.675	1021
946.219	995
946.762	973
947.306	1018
947.849	1001
948.392	1020
948.936	1000
949.479	988
950.022	998
950.565	1014
951.108	1052
951.651	991
952.194	1013
952.737	1049
953.28	1010
953.823	1027
954.365	1017
954.908	1018
955.451	1023
955.993	1016
956.536	1033
957.078	1015
957.621	1045
958.163	1059
958.705	1020
959.248	1030
959.79	1035
960.332	1018
960.874	998
961.416	1037
961.958	1043
962.5	1027
963.042	1043
963.584	1018
964.126	1004
964.668	1011
965.209	1029
965.751	1009
966.293	1041
966.834	1070
967.376	996
967.917	1055
968.459	1025
969	1033
969.541	1045
970.082	1025
970.624	1006
971.165	1006
971.706	1049
972.247	999
972.788	996
973.329	1011
973.87	1018
974.411	1035
974.951	1013
975.492	995
976.033	1010
976.573	1065
977.114	1012
977.654	1049
978.195	1018
978.735	1030
979.276	1026
979.816	1032
980.356	1020
980.897	1052
981.437	1049
981.977	1043
982.517	990
983.057	1024
983.597	990
984.137	1011
984.677	1007
985.216	1016
985.756	1041
986.296	1049
986.835	1031
987.375	1043
987.915	1003
988.454	1014
988.993	989
989.533	992
990.072	1003
990.611	995
991.151	1038
991.69	985
992.229	1009
992.768	960
993.307	969
993.846	964
994.385	1022
994.924	998
995.463	993
996.001	988
996.54	1001
997.079	977
997.617	1017
998.156	1001
998.695	1051
999.233	979
999.771	997
1000.31	979
1000.848	1004
1001.386	965
1001.924	974
1002.463	986
1003.001	1002
1003.539	954
1004.077	1003
1004.615	996
1005.153	980
1005.69	977
1006.228	1022
1006.766	984
1007.304	968
1007.841	981
1008.379	957
1008.916	1014
1009.454	975
1009.991	1014
1010.529	995
1011.066	992
1011.603	977
1012.14	957
1012.678	995
1013.215	958
1013.752	998
1014.289	999
1014.826	955
1015.363	994
1015.9	1000
1016.436	1006
1016.973	1011
1017.51	983
1018.046	964
1018.583	1007
1019.12	985
1019.656	951
1020.193	986
1020.729	971
1021.265	1028
1021.802	961
1022.338	1018
1022.874	960
1023.41	948
1023.946	979
1024.482	961
1025.018	1018
1025.554	1001
1026.09	1013
1026.626	1008
1027.162	974
1027.697	1003
1028.233	997
1028.769	949
1029.304	992
1029.84	1036
1030.375	1007
1030.911	990
1031.446	1008
1031.981	976
1032.517	988
1033.052	1013
1033.587	999
1034.122	1010
1034.657	960
1035.192	964
1035.727	958
1036.262	1005
1036.797	969
1037.332	1032
1037.867	967
1038.401	993
1038.936	991
1039.47	990
1040.005	1007
1040.54	1001
1041.074	1021
1041.608	988
1042.143	1005
1042.677	975
1043.211	1033
1043.745	993
1044.28	1008
1044.814	1009
1045.348	1005
1045.882	985
1046.416	982
1046.949	1008
1047.483	1007
1048.017	1007
1048.551	1015
1049.085	975
1049.618	1027
1050.152	981
1050.685	991
1051.219	999
1051.752	985
1052.286	986
1052.819	1020
1053.352	1010
1053.885	1022
1054.418	1032
1054.952	1028
1055.485	1039
1056.018	997
1056.551	1037
1057.084	1018
1057.616	1025
1058.149	1003
1058.682	1024
1059.215	1037
1059.747	1027
1060.28	1035
1060.812	1031
1061.345	1022
1061.877	1015
1062.41	1011
1062.942	1078
1063.474	1018
1064.007	1038
1064.539	1088
1065.071	1042
1065.603	1053
1066.135	1091
1066.667	1077
1067.199	1068
1067.731	1085
1068.263	1111
1068.795	1112
1069.326	1088
1069.858	1128
1070.39	1176
1070.921	1143
1071.453	1168
1071.984	1196
1072.516	1223
1073.047	1266
1073.578	1294
1074.11	1379
1074.641	1353
1075.172	1394
1075.703	1493
1076.234	1554
1076.765	1567
1077.296	1680
1077.827	1805
1078.358	1822
1078.889	1939
1079.42	1993
1079.95	2124
1080.481	2290
1081.012	2335
1081.542	2543
1082.073	2591
